IR Count, Red Count, Green Count, X Axis Acceleration, Y Axis Acceleration, Z Axis Acceleration, Heart Rate, HR Confidence, SPO2, Algorithm Status
106718,90341,--,0.603,0.542,-0.561,0.0,0,0.0,1
123105,106737,--,0.604,0.543,-0.558,0.0,0,0.0,1
139495,123115,--,0.606,0.544,-0.556,0.0,0,0.0,1
155895,139494,--,0.607,0.543,-0.557,0.0,0,0.0,1
172235,155896,--,0.607,0.543,-0.557,0.0,0,0.0,1
188647,172242,--,0.607,0.543,-0.557,0.0,0,0.0,1
205036,188689,--,0.607,0.543,-0.557,0.0,0,0.0,1
221453,205027,--,0.606,0.543,-0.561,0.0,0,0.0,1
237776,221378,--,0.606,0.543,-0.561,0.0,0,0.0,1
254145,221241,--,0.606,0.543,-0.561,0.0,0,0.0,1
262143,221226,--,0.606,0.543,-0.561,0.0,0,0.0,1
261895,221230,--,0.604,0.542,-0.562,0.0,0,0.0,1
261897,221228,--,0.604,0.542,-0.562,0.0,0,0.0,1
261905,221247,--,0.604,0.542,-0.562,0.0,0,0.0,1
261940,221235,--,0.604,0.542,-0.562,0.0,0,0.0,1
262143,221253,--,0.603,0.542,-0.560,0.0,0,0.0,1
262143,221246,--,0.603,0.542,-0.561,0.0,0,0.0,1
262143,221255,--,0.603,0.541,-0.562,0.0,0,0.0,1
262143,221261,--,0.604,0.540,-0.563,0.0,0,0.0,1
262143,221271,--,0.604,0.541,-0.562,0.0,0,0.0,1
262143,221250,--,0.605,0.542,-0.560,0.0,0,0.0,1
262143,221251,--,0.606,0.543,-0.558,0.0,0,0.0,1
262143,221265,--,0.606,0.543,-0.558,0.0,0,0.0,1
262143,221252,--,0.606,0.543,-0.558,0.0,0,0.0,1
262143,221266,--,0.606,0.542,-0.558,0.0,0,0.0,1
262143,221260,--,0.606,0.542,-0.558,0.0,0,0.0,1
262143,221272,--,0.606,0.542,-0.558,0.0,0,0.0,1
262143,221271,--,0.606,0.542,-0.558,0.0,0,0.0,1
262143,221281,--,0.608,0.542,-0.559,0.0,0,0.0,1
262143,221265,--,0.608,0.542,-0.559,0.0,0,0.0,1
262143,221274,--,0.608,0.542,-0.559,0.0,0,0.0,1
262143,221286,--,0.608,0.542,-0.559,0.0,0,0.0,1
229376,221277,--,0.608,0.540,-0.562,0.0,0,0.0,1
180224,221289,--,0.606,0.539,-0.563,0.0,0,0.0,1
165025,221290,--,0.604,0.540,-0.562,0.0,0,0.0,1
165033,221302,--,0.602,0.541,-0.563,0.0,0,0.0,1
165039,221299,--,0.602,0.542,-0.564,0.0,0,0.0,1
165051,221295,--,0.604,0.542,-0.563,0.0,0,0.0,1
165042,221291,--,0.604,0.542,-0.563,0.0,0,0.0,1
165043,221294,--,0.604,0.542,-0.563,0.0,0,0.0,1
165011,221273,--,0.604,0.541,-0.565,0.0,0,0.0,1
164984,221236,--,0.604,0.541,-0.565,0.0,0,0.0,1
164945,221229,--,0.604,0.541,-0.565,0.0,0,0.0,1
164915,221203,--,0.604,0.541,-0.565,0.0,0,0.0,1
164898,221188,--,0.604,0.538,-0.568,0.0,0,0.0,1
164862,221181,--,0.604,0.538,-0.568,0.0,0,0.0,1
164856,221171,--,0.604,0.538,-0.568,0.0,0,0.0,1
164836,221159,--,0.604,0.538,-0.568,0.0,0,0.0,1
164837,221160,--,0.603,0.538,-0.569,0.0,0,0.0,1
164833,221151,--,0.603,0.540,-0.567,0.0,0,0.0,1
164845,221160,--,0.606,0.543,-0.563,0.0,0,0.0,1
164864,221167,--,0.606,0.542,-0.562,0.0,0,0.0,1
164870,221172,--,0.604,0.539,-0.565,0.0,0,0.0,1
164870,221175,--,0.603,0.538,-0.567,0.0,0,0.0,1
164877,221177,--,0.603,0.538,-0.567,0.0,0,0.0,1
164893,221179,--,0.603,0.538,-0.568,0.0,0,0.0,1
164882,221173,--,0.603,0.538,-0.568,0.0,0,0.0,1
164882,221171,--,0.603,0.538,-0.568,0.0,0,0.0,1
164880,221165,--,0.603,0.538,-0.568,0.0,0,0.0,1
164891,221164,--,0.603,0.539,-0.567,0.0,0,0.0,1
164897,221177,--,0.603,0.539,-0.567,0.0,0,0.0,1
164900,221186,--,0.603,0.539,-0.567,0.0,0,0.0,1
164918,221188,--,0.603,0.539,-0.567,0.0,0,0.0,1
164923,221187,--,0.604,0.539,-0.565,0.0,0,0.0,1
164937,221202,--,0.604,0.539,-0.565,0.0,0,0.0,1
164954,221197,--,0.604,0.539,-0.565,0.0,0,0.0,1
164973,221201,--,0.605,0.539,-0.564,0.0,0,0.0,1
164973,221207,--,0.605,0.540,-0.564,0.0,0,0.0,1
164985,221194,--,0.604,0.541,-0.563,0.0,0,0.0,1
164989,221198,--,0.603,0.541,-0.564,0.0,0,0.0,1
164983,221194,--,0.603,0.539,-0.567,0.0,0,0.0,1
164977,221177,--,0.602,0.538,-0.569,0.0,0,0.0,1
164981,221170,--,0.602,0.538,-0.569,0.0,0,0.0,1
164965,221172,--,0.603,0.538,-0.569,0.0,0,0.0,1
164973,221162,--,0.603,0.538,-0.569,0.0,0,0.0,1
164963,221153,--,0.603,0.538,-0.569,0.0,0,0.0,1
164962,221149,--,0.603,0.538,-0.569,0.0,0,0.0,1
164963,221145,--,0.603,0.538,-0.569,0.0,0,0.0,1
164978,221153,--,0.604,0.539,-0.567,0.0,0,0.0,1
164983,221162,--,0.604,0.539,-0.567,0.0,0,0.0,1
164992,221159,--,0.604,0.539,-0.567,0.0,0,0.0,1
165004,221159,--,0.604,0.540,-0.566,0.0,0,0.0,1
165005,221174,--,0.604,0.540,-0.566,0.0,0,0.0,1
165014,221167,--,0.603,0.540,-0.566,0.0,0,0.0,1
165034,221174,--,0.603,0.539,-0.566,0.0,0,0.0,1
165038,221175,--,0.604,0.539,-0.566,0.0,0,0.0,1
165045,221176,--,0.604,0.539,-0.566,0.0,0,0.0,1
165053,221176,--,0.605,0.539,-0.567,0.0,0,0.0,1
165054,221184,--,0.604,0.538,-0.566,0.0,0,0.0,1
165071,221196,--,0.604,0.538,-0.566,0.0,0,0.0,1
165073,221185,--,0.604,0.538,-0.566,0.0,0,0.0,1
165081,221187,--,0.604,0.538,-0.566,0.0,0,0.0,1
165086,221190,--,0.603,0.539,-0.567,0.0,0,0.0,1
165094,221192,--,0.603,0.539,-0.567,0.0,0,0.0,1
165105,221187,--,0.603,0.539,-0.567,0.0,0,0.0,1
165112,221199,--,0.603,0.539,-0.567,0.0,0,0.0,1
165134,221205,--,0.603,0.539,-0.569,0.0,0,0.0,1
165132,221209,--,0.603,0.539,-0.569,0.0,0,0.0,1
165136,221215,--,0.603,0.539,-0.569,0.0,0,0.0,1
165137,221199,--,0.603,0.539,-0.569,0.0,0,0.0,1
165141,221192,--,0.602,0.536,-0.570,0.0,0,0.0,1
165135,221192,--,0.601,0.535,-0.571,0.0,0,0.0,1
165147,221193,--,0.602,0.536,-0.571,0.0,0,0.0,1
165148,221174,--,0.603,0.538,-0.570,0.0,0,0.0,1
165149,221180,--,0.604,0.540,-0.569,0.0,0,0.0,1
165151,221188,--,0.603,0.539,-0.568,0.0,0,0.0,1
165158,221180,--,0.603,0.539,-0.568,0.0,0,0.0,1
165166,221182,--,0.603,0.538,-0.570,0.0,0,0.0,1
165172,221185,--,0.603,0.538,-0.570,0.0,0,0.0,1
165171,221181,--,0.603,0.538,-0.570,0.0,0,0.0,1
165186,221183,--,0.603,0.538,-0.570,0.0,0,0.0,1
165194,221200,--,0.602,0.537,-0.571,0.0,0,0.0,1
165201,221196,--,0.602,0.537,-0.571,0.0,0,0.0,1
165212,221191,--,0.602,0.537,-0.571,0.0,0,0.0,1
165222,221197,--,0.602,0.537,-0.571,0.0,0,0.0,1
165227,221195,--,0.602,0.537,-0.571,0.0,0,0.0,1
165239,221200,--,0.602,0.537,-0.571,0.0,0,0.0,1
165236,221195,--,0.603,0.539,-0.570,0.0,0,0.0,1
165227,221194,--,0.604,0.541,-0.568,0.0,0,0.0,1
165218,221179,--,0.604,0.539,-0.568,0.0,0,0.0,1
165194,221163,--,0.603,0.538,-0.570,0.0,0,0.0,1
165156,221145,--,0.603,0.539,-0.571,0.0,0,0.0,1
165130,221125,--,0.604,0.540,-0.570,0.0,0,0.0,1
165080,221097,--,0.604,0.540,-0.570,0.0,0,0.0,1
165046,221076,--,0.604,0.540,-0.569,0.0,0,0.0,1
165014,221048,--,0.604,0.540,-0.569,0.0,0,0.0,1
164997,221035,--,0.604,0.540,-0.569,0.0,0,0.0,1
164975,221010,--,0.604,0.540,-0.569,0.0,0,0.0,1
164972,221014,--,0.603,0.539,-0.570,0.0,0,0.0,1
164968,221005,--,0.603,0.539,-0.570,0.0,0,0.0,1
164976,221023,--,0.603,0.539,-0.570,0.0,0,0.0,1
164979,221010,--,0.603,0.539,-0.570,0.0,0,0.0,1
164977,221010,--,0.602,0.539,-0.570,0.0,0,0.0,1
164989,221005,--,0.602,0.539,-0.570,0.0,0,0.0,1
164989,221012,--,0.600,0.541,-0.572,0.0,0,0.0,1
164997,221013,--,0.599,0.542,-0.570,0.0,0,0.0,1
164994,221018,--,0.601,0.542,-0.568,0.0,0,0.0,1
164990,221017,--,0.603,0.541,-0.568,0.0,0,0.0,1
164989,221001,--,0.604,0.541,-0.565,0.0,0,0.0,1
164991,220994,--,0.604,0.541,-0.565,0.0,0,0.0,1
164994,220993,--,0.605,0.542,-0.562,0.0,0,0.0,1
164995,221000,--,0.605,0.542,-0.562,0.0,0,0.0,1
164984,220986,--,0.605,0.542,-0.562,0.0,0,0.0,1
165002,220985,--,0.605,0.542,-0.562,0.0,0,0.0,1
164998,220976,--,0.605,0.544,-0.561,0.0,0,0.0,1
165000,220976,--,0.605,0.544,-0.561,0.0,0,0.0,1
164991,220963,--,0.605,0.544,-0.561,0.0,0,0.0,1
164995,220965,--,0.605,0.544,-0.561,0.0,0,0.0,1
164992,220953,--,0.603,0.544,-0.561,0.0,0,0.0,1
164986,220940,--,0.603,0.544,-0.561,0.0,0,0.0,1
164971,220922,--,0.603,0.544,-0.561,0.0,0,0.0,1
164965,220897,--,0.601,0.544,-0.563,0.0,0,0.0,1
164955,220890,--,0.601,0.543,-0.566,0.0,0,0.0,1
164946,220874,--,0.600,0.541,-0.571,0.0,0,0.0,1
164940,220864,--,0.600,0.541,-0.573,0.0,0,0.0,1
164929,220840,--,0.602,0.544,-0.569,0.0,0,0.0,1
164923,220833,--,0.604,0.544,-0.567,0.0,0,0.0,1
164910,220838,--,0.604,0.544,-0.567,0.0,0,0.0,1
164914,220826,--,0.604,0.544,-0.567,0.0,0,0.0,1
164915,220827,--,0.602,0.544,-0.568,0.0,0,0.0,1
164919,220835,--,0.602,0.544,-0.568,0.0,0,0.0,1
164922,220830,--,0.602,0.544,-0.568,0.0,0,0.0,1
164936,220842,--,0.602,0.544,-0.568,0.0,0,0.0,1
164942,220836,--,0.599,0.542,-0.569,0.0,0,0.0,1
164950,220832,--,0.599,0.542,-0.569,0.0,0,0.0,1
164933,220825,--,0.599,0.542,-0.569,0.0,0,0.0,1
164939,220819,--,0.599,0.542,-0.569,0.0,0,0.0,1
164936,220821,--,0.599,0.542,-0.568,0.0,0,0.0,1
164944,220818,--,0.601,0.544,-0.564,0.0,0,0.0,1
164934,220812,--,0.602,0.544,-0.562,0.0,0,0.0,1
164929,220811,--,0.603,0.544,-0.562,0.0,0,0.0,1
164926,220786,--,0.603,0.543,-0.565,0.0,0,0.0,1
164925,220761,--,0.602,0.542,-0.566,0.0,0,0.0,1
164902,220745,--,0.600,0.540,-0.565,0.0,0,0.0,1
164903,220731,--,0.600,0.540,-0.565,0.0,0,0.0,1
164882,220719,--,0.600,0.540,-0.565,0.0,0,0.0,1
164891,220712,--,0.600,0.540,-0.565,0.0,0,0.0,1
164897,220710,--,0.600,0.540,-0.565,0.0,0,0.0,1
164891,220717,--,0.604,0.542,-0.571,0.0,0,0.0,1
164895,220714,--,0.604,0.542,-0.571,0.0,0,0.0,1
164903,220708,--,0.604,0.542,-0.571,0.0,0,0.0,1
164897,220703,--,0.604,0.542,-0.571,0.0,0,0.0,1
164899,220700,--,0.607,0.546,-0.570,0.0,0,0.0,1
164895,220675,--,0.607,0.546,-0.570,0.0,0,0.0,1
164884,220664,--,0.607,0.546,-0.570,0.0,0,0.0,1
164880,220658,--,0.602,0.544,-0.564,0.0,0,0.0,1
164871,220642,--,0.601,0.545,-0.566,0.0,0,0.0,1
164874,220642,--,0.600,0.544,-0.568,0.0,0,0.0,1
164874,220630,--,0.599,0.542,-0.570,0.0,0,0.0,1
164861,220635,--,0.601,0.541,-0.571,0.0,0,0.0,1
164866,220626,--,0.603,0.541,-0.570,0.0,0,0.0,1
164884,220615,--,0.603,0.541,-0.570,0.0,0,0.0,1
164886,220622,--,0.602,0.542,-0.571,0.0,0,0.0,1
164886,220616,--,0.602,0.542,-0.571,0.0,0,0.0,1
164909,220637,--,0.602,0.542,-0.571,0.0,0,0.0,1
164908,220628,--,0.602,0.542,-0.571,0.0,0,0.0,1
164924,220640,--,0.601,0.543,-0.572,0.0,0,0.0,1
164926,220641,--,0.601,0.543,-0.572,0.0,0,0.0,1
164942,220643,--,0.601,0.543,-0.572,0.0,0,0.0,1
164951,220635,--,0.601,0.543,-0.572,0.0,0,0.0,1
164951,220635,--,0.602,0.543,-0.568,0.0,0,0.0,1
164945,220631,--,0.602,0.543,-0.568,0.0,0,0.0,1
164945,220623,--,0.602,0.542,-0.567,0.0,0,0.0,1
164950,220614,--,0.602,0.541,-0.569,0.0,0,0.0,1
164938,220604,--,0.602,0.542,-0.570,0.0,0,0.0,1
164925,220581,--,0.601,0.541,-0.571,0.0,0,0.0,1
164872,220542,--,0.602,0.541,-0.570,0.0,0,0.0,1
164815,220506,--,0.603,0.540,-0.569,0.0,0,0.0,1
164762,220467,--,0.603,0.540,-0.569,0.0,0,0.0,1
164715,220446,--,0.603,0.540,-0.569,0.0,0,0.0,1
164677,220409,--,0.603,0.540,-0.569,0.0,0,0.0,1
164628,220379,--,0.603,0.540,-0.569,0.0,0,0.0,1
164611,220368,--,0.603,0.540,-0.569,0.0,0,0.0,1
164588,220354,--,0.603,0.540,-0.569,0.0,0,0.0,1
164585,220335,--,0.603,0.540,-0.569,0.0,0,0.0,1
164577,220325,--,0.603,0.541,-0.568,0.0,0,0.0,1
164565,220321,--,0.603,0.541,-0.568,0.0,0,0.0,1
164569,220315,--,0.603,0.541,-0.568,0.0,0,0.0,1
164564,220317,--,0.603,0.541,-0.568,0.0,0,0.0,1
164569,220309,--,0.602,0.540,-0.568,0.0,0,0.0,1
164561,220286,--,0.603,0.541,-0.569,0.0,0,0.0,1
164564,220286,--,0.602,0.540,-0.565,0.0,0,0.0,1
164553,220280,--,0.603,0.541,-0.565,0.0,0,0.0,1
164549,220280,--,0.604,0.541,-0.569,0.0,0,0.0,1
164532,220256,--,0.603,0.540,-0.571,0.0,0,0.0,1
164539,220251,--,0.601,0.539,-0.571,0.0,0,0.0,1
164540,220248,--,0.601,0.539,-0.571,0.0,0,0.0,1
164547,220238,--,0.601,0.539,-0.571,0.0,0,0.0,1
164547,220255,--,0.601,0.539,-0.568,0.0,0,0.0,1
164550,220232,--,0.601,0.539,-0.568,0.0,0,0.0,1
164565,220250,--,0.601,0.539,-0.568,0.0,0,0.0,1
164581,220249,--,0.601,0.539,-0.568,0.0,0,0.0,1
164588,220267,--,0.602,0.541,-0.566,0.0,0,0.0,1
164589,220263,--,0.602,0.541,-0.566,0.0,0,0.0,1
164601,220276,--,0.602,0.541,-0.566,0.0,0,0.0,1
164599,220254,--,0.602,0.541,-0.566,0.0,0,0.0,1
164592,220240,--,0.604,0.541,-0.563,0.0,0,0.0,1
164578,220232,--,0.605,0.541,-0.565,0.0,0,0.0,1
164569,220209,--,0.605,0.541,-0.565,0.0,0,0.0,1
164558,220201,--,0.605,0.540,-0.563,0.0,0,0.0,1
164552,220200,--,0.604,0.538,-0.564,0.0,0,0.0,1
164551,220174,--,0.603,0.538,-0.566,0.0,0,0.0,1
164549,220167,--,0.603,0.538,-0.566,0.0,0,0.0,1
164547,220170,--,0.603,0.538,-0.566,0.0,0,0.0,1
164548,220163,--,0.604,0.540,-0.566,0.0,0,0.0,1
164546,220168,--,0.604,0.540,-0.566,0.0,0,0.0,1
164558,220160,--,0.604,0.540,-0.566,0.0,0,0.0,1
164558,220155,--,0.604,0.540,-0.566,0.0,0,0.0,1
164565,220149,--,0.606,0.541,-0.564,0.0,0,0.0,1
164576,220168,--,0.606,0.541,-0.564,0.0,0,0.0,1
164576,220161,--,0.606,0.541,-0.564,0.0,0,0.0,1
164590,220164,--,0.606,0.541,-0.564,0.0,0,0.0,1
164582,220163,--,0.607,0.540,-0.562,0.0,0,0.0,1
164596,220179,--,0.604,0.539,-0.565,0.0,0,0.0,1
164610,220171,--,0.603,0.540,-0.569,0.0,0,0.0,1
164631,220182,--,0.603,0.540,-0.569,0.0,0,0.0,1
164627,220168,--,0.603,0.539,-0.568,0.0,0,0.0,1
164640,220169,--,0.604,0.539,-0.566,0.0,0,0.0,1
164637,220171,--,0.604,0.539,-0.566,0.0,0,0.0,1
164642,220170,--,0.605,0.539,-0.566,0.0,0,0.0,1
164650,220177,--,0.605,0.539,-0.566,0.0,0,0.0,1
164644,220174,--,0.605,0.539,-0.566,0.0,0,0.0,1
164656,220167,--,0.605,0.539,-0.566,0.0,0,0.0,1
164661,220177,--,0.604,0.536,-0.569,0.0,0,0.0,1
164665,220171,--,0.604,0.536,-0.569,0.0,0,0.0,1
164667,220164,--,0.604,0.536,-0.569,0.0,0,0.0,1
164672,220162,--,0.604,0.536,-0.569,0.0,0,0.0,1
164677,220153,--,0.603,0.535,-0.571,0.0,0,0.0,1
164675,220141,--,0.603,0.535,-0.571,0.0,0,0.0,1
164676,220136,--,0.603,0.535,-0.571,0.0,0,0.0,1
164667,220137,--,0.603,0.536,-0.569,0.0,0,0.0,1
164654,220125,--,0.604,0.537,-0.568,0.0,0,0.0,1
164658,220126,--,0.604,0.537,-0.567,0.0,0,0.0,1
164671,220117,--,0.603,0.537,-0.570,0.0,0,0.0,1
164678,220120,--,0.604,0.537,-0.571,0.0,0,0.0,1
164675,220114,--,0.604,0.537,-0.570,0.0,0,0.0,1
164679,220122,--,0.604,0.537,-0.570,0.0,0,0.0,1
164682,220093,--,0.604,0.537,-0.570,0.0,0,0.0,1
164688,220112,--,0.601,0.537,-0.571,0.0,0,0.0,1
164698,220101,--,0.601,0.537,-0.571,0.0,0,0.0,1
164698,220111,--,0.601,0.537,-0.571,0.0,0,0.0,1
164709,220123,--,0.601,0.537,-0.571,0.0,0,0.0,1
164718,220124,--,0.600,0.537,-0.570,0.0,0,0.0,1
164722,220111,--,0.600,0.537,-0.570,0.0,0,0.0,1
164727,220117,--,0.600,0.537,-0.570,0.0,0,0.0,1
164746,220125,--,0.600,0.537,-0.570,0.0,0,0.0,1
164737,220125,--,0.601,0.535,-0.570,0.0,0,0.0,1
164761,220112,--,0.603,0.532,-0.570,0.0,0,0.0,1
164775,220121,--,0.605,0.532,-0.571,0.0,0,0.0,1
164788,220112,--,0.604,0.527,-0.564,0.0,0,0.0,1
164787,220120,--,0.611,0.533,-0.567,0.0,0,0.0,1
164808,220116,--,0.615,0.537,-0.566,0.0,0,0.0,1
164815,220134,--,0.613,0.532,-0.557,0.0,0,0.0,1
164824,220130,--,0.613,0.532,-0.557,0.0,0,0.0,1
164828,220116,--,0.613,0.532,-0.557,0.0,0,0.0,1
164819,220118,--,0.613,0.532,-0.557,0.0,0,0.0,1
164799,220102,--,0.616,0.532,-0.557,0.0,0,0.0,1
164755,220069,--,0.616,0.532,-0.557,0.0,0,0.0,1
164703,220024,--,0.616,0.532,-0.557,0.0,0,0.0,1
164602,219985,--,0.616,0.532,-0.557,0.0,0,0.0,1
164519,219901,--,0.616,0.532,-0.557,0.0,0,0.0,1
164447,219835,--,0.617,0.533,-0.559,0.0,0,0.0,1
164363,219788,--,0.617,0.533,-0.559,0.0,0,0.0,1
164307,219749,--,0.617,0.533,-0.559,0.0,0,0.0,1
164256,219725,--,0.618,0.537,-0.561,0.0,0,0.0,1
164226,219693,--,0.617,0.536,-0.559,0.0,0,0.0,1
164208,219671,--,0.611,0.530,-0.553,0.0,0,0.0,1
164193,219668,--,0.606,0.524,-0.548,0.0,0,0.0,1
164189,219671,--,0.609,0.525,-0.556,0.0,0,0.0,1
164192,219666,--,0.616,0.526,-0.553,0.0,0,0.0,1
164170,219655,--,0.616,0.526,-0.553,0.0,0,0.0,1
164167,219653,--,0.622,0.521,-0.544,0.0,0,0.0,1
164160,219656,--,0.622,0.521,-0.544,0.0,0,0.0,1
164156,219657,--,0.622,0.521,-0.544,0.0,0,0.0,1
164154,219653,--,0.622,0.521,-0.544,0.0,0,0.0,1
164134,219647,--,0.629,0.522,-0.540,0.0,0,0.0,1
164115,219616,--,0.629,0.522,-0.540,0.0,0,0.0,1
164095,219582,--,0.629,0.522,-0.540,0.0,0,0.0,1
164085,219559,--,0.629,0.522,-0.540,0.0,0,0.0,1
164080,219539,--,0.632,0.526,-0.535,0.0,0,0.0,1
164066,219525,--,0.632,0.526,-0.535,0.0,0,0.0,1
164073,219517,--,0.623,0.524,-0.535,0.0,0,0.0,1
164081,219512,--,0.614,0.514,-0.540,0.0,0,0.0,1
164098,219514,--,0.621,0.505,-0.536,0.0,0,0.0,1
164109,219513,--,0.653,0.504,-0.532,0.0,0,0.0,1
164123,219502,--,0.688,0.506,-0.530,0.0,0,0.0,1
164129,219494,--,0.702,0.507,-0.523,0.0,0,0.0,1
164127,219480,--,0.702,0.507,-0.523,0.0,0,0.0,1
164127,219471,--,0.702,0.507,-0.523,0.0,0,0.0,1
164116,219460,--,0.702,0.507,-0.523,0.0,0,0.0,1
164092,219439,--,0.698,0.506,-0.517,0.0,0,0.0,1
164074,219410,--,0.698,0.506,-0.517,0.0,0,0.0,1
164041,219392,--,0.698,0.506,-0.517,0.0,0,0.0,1
164013,219355,--,0.698,0.506,-0.517,0.0,0,0.0,1
164001,219343,--,0.697,0.502,-0.518,0.0,0,0.0,1
163994,219333,--,0.697,0.502,-0.518,0.0,0,0.0,1
163978,219322,--,0.697,0.502,-0.518,0.0,0,0.0,1
163971,219305,--,0.697,0.502,-0.518,0.0,0,0.0,1
163967,219288,--,0.702,0.498,-0.525,0.0,0,0.0,1
163962,219280,--,0.705,0.493,-0.526,0.0,0,0.0,1
163977,219256,--,0.702,0.489,-0.523,0.0,0,0.0,1
163978,219265,--,0.694,0.483,-0.523,0.0,0,0.0,1
163990,219268,--,0.686,0.479,-0.530,0.0,0,0.0,1
164001,219252,--,0.682,0.475,-0.547,0.0,0,0.0,1
164025,219254,--,0.682,0.475,-0.547,0.0,0,0.0,1
164031,219242,--,0.684,0.473,-0.557,0.0,0,0.0,1
164042,219248,--,0.684,0.473,-0.557,0.0,0,0.0,1
164042,219246,--,0.684,0.473,-0.557,0.0,0,0.0,1
164063,219243,--,0.684,0.473,-0.557,0.0,0,0.0,1
164071,219225,--,0.694,0.469,-0.547,0.0,0,0.0,1
164079,219235,--,0.694,0.469,-0.547,0.0,0,0.0,1
164093,219238,--,0.694,0.469,-0.547,0.0,0,0.0,1
164103,219231,--,0.694,0.469,-0.547,0.0,0,0.0,1
164121,219234,--,0.715,0.469,-0.535,0.0,0,0.0,1
164127,219246,--,0.715,0.469,-0.535,0.0,0,0.0,1
164124,219252,--,0.732,0.467,-0.525,0.0,0,0.0,1
164135,219232,--,0.741,0.465,-0.519,0.0,0,0.0,1
164147,219256,--,0.742,0.462,-0.524,0.0,0,0.0,1
164151,219249,--,0.741,0.457,-0.528,0.0,0,0.0,1
164147,219232,--,0.743,0.452,-0.529,0.0,0,0.0,1
164157,219215,--,0.751,0.445,-0.519,0.0,0,0.0,1
164163,219229,--,0.751,0.445,-0.519,0.0,0,0.0,1
164181,219224,--,0.751,0.445,-0.519,0.0,0,0.0,1
164182,219222,--,0.758,0.435,-0.505,0.0,0,0.0,1
164191,219225,--,0.758,0.435,-0.505,0.0,0,0.0,1
164204,219220,--,0.758,0.435,-0.505,0.0,0,0.0,1
164203,219221,--,0.758,0.435,-0.505,0.0,0,0.0,1
164205,219195,--,0.759,0.426,-0.499,0.0,0,0.0,1
164221,219205,--,0.759,0.426,-0.499,0.0,0,0.0,1
164224,219202,--,0.759,0.426,-0.499,0.0,0,0.0,1
164227,219197,--,0.759,0.426,-0.499,0.0,0,0.0,1
164240,219210,--,0.760,0.418,-0.497,0.0,0,0.0,1
164253,219210,--,0.769,0.414,-0.501,0.0,0,0.0,1
164271,219226,--,0.772,0.410,-0.505,0.0,0,0.0,1
164287,219225,--,0.755,0.398,-0.496,0.0,0,0.0,1
164296,219224,--,0.768,0.395,-0.488,0.0,0,0.0,1
164300,219233,--,0.815,0.405,-0.497,0.0,0,0.0,1
164312,219243,--,0.815,0.405,-0.497,0.0,0,0.0,1
164310,219250,--,0.851,0.409,-0.486,0.0,0,0.0,1
164314,219260,--,0.851,0.409,-0.486,0.0,0,0.0,1
164336,219277,--,0.851,0.409,-0.486,0.0,0,0.0,1
164336,219288,--,0.851,0.409,-0.486,0.0,0,0.0,1
164326,219301,--,0.877,0.407,-0.457,0.0,0,0.0,1
164329,219312,--,0.877,0.407,-0.457,0.0,0,0.0,1
164326,219317,--,0.877,0.407,-0.457,0.0,0,0.0,1
164325,219297,--,0.877,0.407,-0.457,0.0,0,0.0,1
164310,219283,--,0.892,0.402,-0.431,0.0,0,0.0,1
164305,219272,--,0.892,0.402,-0.431,0.0,0,0.0,1
164319,219272,--,0.892,0.402,-0.431,0.0,0,0.0,1
164296,219261,--,0.892,0.391,-0.406,0.0,0,0.0,1
164300,219249,--,0.889,0.383,-0.381,0.0,0,0.0,1
164298,219239,--,0.886,0.374,-0.353,0.0,0,0.0,1
164279,219238,--,0.881,0.363,-0.332,0.0,0,0.0,1
164244,219209,--,0.881,0.352,-0.321,0.0,0,0.0,1
164180,219186,--,0.887,0.340,-0.308,0.0,0,0.0,1
164091,219124,--,0.887,0.340,-0.308,0.0,0,0.0,1
163974,219069,--,0.887,0.340,-0.308,0.0,0,0.0,1
163867,219011,--,0.896,0.326,-0.292,0.0,0,0.0,1
163793,218965,--,0.896,0.326,-0.292,0.0,0,0.0,1
163723,218928,--,0.896,0.326,-0.292,0.0,0,0.0,1
163672,218893,--,0.896,0.326,-0.292,0.0,0,0.0,1
163621,218874,--,0.907,0.317,-0.281,0.0,0,0.0,1
163596,218860,--,0.907,0.317,-0.281,0.0,0,0.0,1
163595,218851,--,0.907,0.317,-0.281,0.0,0,0.0,1
163589,218846,--,0.907,0.317,-0.281,0.0,0,0.0,1
163597,218859,--,0.912,0.314,-0.275,0.0,0,0.0,1
163609,218862,--,0.906,0.309,-0.270,0.0,0,0.0,1
163632,218871,--,0.893,0.300,-0.266,0.0,0,0.0,1
163645,218902,--,0.881,0.294,-0.267,0.0,0,0.0,1
163661,218902,--,0.872,0.290,-0.265,0.0,0,0.0,1
163667,218904,--,0.874,0.288,-0.266,0.0,0,0.0,1
163665,218898,--,0.892,0.290,-0.277,0.0,0,0.0,1
163680,218912,--,0.892,0.290,-0.277,0.0,0,0.0,1
163684,218924,--,0.892,0.290,-0.277,0.0,0,0.0,1
163686,218919,--,0.892,0.290,-0.277,0.0,0,0.0,1
163696,218936,--,0.913,0.294,-0.287,0.0,0,0.0,1
163712,218941,--,0.913,0.294,-0.287,0.0,0,0.0,1
163726,218959,--,0.913,0.294,-0.287,0.0,0,0.0,1
163739,218964,--,0.913,0.294,-0.287,0.0,0,0.0,1
163762,218974,--,0.912,0.294,-0.284,0.0,0,0.0,1
163779,218983,--,0.912,0.294,-0.284,0.0,0,0.0,1
163782,218988,--,0.912,0.294,-0.284,0.0,0,0.0,1
163805,218989,--,0.894,0.291,-0.277,0.0,0,0.0,1
163811,218984,--,0.877,0.289,-0.285,0.0,0,0.0,1
163805,219000,--,0.881,0.291,-0.314,0.0,0,0.0,1
163830,218989,--,0.898,0.298,-0.353,0.0,0,0.0,1
163826,218986,--,0.898,0.301,-0.382,0.0,0,0.0,1
163835,218986,--,0.874,0.300,-0.402,0.0,0,0.0,1
163840,218981,--,0.874,0.300,-0.402,0.0,0,0.0,1
163842,218967,--,0.874,0.300,-0.402,0.0,0,0.0,1
163832,218959,--,0.854,0.299,-0.432,0.0,0,0.0,1
163836,218965,--,0.854,0.299,-0.432,0.0,0,0.0,1
163838,218954,--,0.854,0.299,-0.432,0.0,0,0.0,1
163855,218948,--,0.854,0.299,-0.432,0.0,0,0.0,1
163870,218962,--,0.849,0.305,-0.465,0.0,0,0.0,1
163872,218961,--,0.849,0.305,-0.465,0.0,0,0.0,1
163902,218965,--,0.849,0.305,-0.465,0.0,0,0.0,1
163910,218992,--,0.849,0.305,-0.465,0.0,0,0.0,1
163936,218997,--,0.835,0.312,-0.485,0.0,0,0.0,1
163958,219006,--,0.835,0.312,-0.485,0.0,0,0.0,1
163968,219014,--,0.806,0.314,-0.492,0.0,0,0.0,1
163976,219023,--,0.778,0.316,-0.496,0.0,0,0.0,1
163975,219013,--,0.752,0.318,-0.507,0.0,0,0.0,1
164001,219014,--,0.732,0.324,-0.530,0.0,0,0.0,1
164005,219023,--,0.730,0.337,-0.560,0.0,0,0.0,1
164026,219022,--,0.740,0.352,-0.583,0.0,0,0.0,1
164039,219017,--,0.740,0.352,-0.583,0.0,0,0.0,1
164042,219009,--,0.740,0.352,-0.583,0.0,0,0.0,1
164051,219019,--,0.740,0.352,-0.583,0.0,0,0.0,1
164055,219019,--,0.745,0.360,-0.593,0.0,0,0.0,1
164062,219026,--,0.745,0.360,-0.593,0.0,0,0.0,1
164067,219026,--,0.745,0.360,-0.593,0.0,0,0.0,1
164070,219023,--,0.745,0.360,-0.593,0.0,0,0.0,1
164084,219028,--,0.744,0.365,-0.598,0.0,0,0.0,1
164076,219033,--,0.744,0.365,-0.598,0.0,0,0.0,1
164078,219030,--,0.744,0.365,-0.598,0.0,0,0.0,1
164086,219030,--,0.744,0.365,-0.598,0.0,0,0.0,1
164097,219022,--,0.731,0.368,-0.603,0.0,0,0.0,1
164114,219033,--,0.709,0.370,-0.614,0.0,0,0.0,1
164118,219029,--,0.688,0.371,-0.628,0.0,0,0.0,1
164123,219043,--,0.677,0.372,-0.648,0.0,0,0.0,1
164141,219054,--,0.680,0.376,-0.669,0.0,0,0.0,1
164147,219043,--,0.684,0.378,-0.680,0.0,0,0.0,1
164168,219053,--,0.671,0.378,-0.677,0.0,0,0.0,1
164178,219048,--,0.671,0.378,-0.677,0.0,0,0.0,1
164197,219045,--,0.671,0.378,-0.677,0.0,0,0.0,1
164214,219059,--,0.671,0.378,-0.677,0.0,0,0.0,1
164210,219059,--,0.671,0.378,-0.677,0.0,0,0.0,1
164230,219057,--,0.645,0.376,-0.668,0.0,0,0.0,1
164249,219066,--,0.645,0.376,-0.668,0.0,0,0.0,1
164259,219068,--,0.645,0.376,-0.668,0.0,0,0.0,1
164276,219065,--,0.645,0.376,-0.668,0.0,0,0.0,1
164291,219080,--,0.623,0.375,-0.663,0.0,0,0.0,1
164308,219095,--,0.623,0.375,-0.663,0.0,0,0.0,1
164324,219106,--,0.610,0.377,-0.672,0.0,0,0.0,1
164337,219124,--,0.605,0.380,-0.695,0.0,0,0.0,1
164365,219133,--,0.604,0.382,-0.715,0.0,0,0.0,1
164401,219146,--,0.601,0.383,-0.720,0.0,0,0.0,1
164427,219165,--,0.597,0.383,-0.715,0.0,0,0.0,1
164461,219170,--,0.594,0.385,-0.716,0.0,0,0.0,1
164494,219200,--,0.594,0.385,-0.716,0.0,0,0.0,1
164527,219208,--,0.594,0.385,-0.716,0.0,0,0.0,1
164553,219224,--,0.595,0.389,-0.734,0.0,0,0.0,1
164575,219231,--,0.595,0.389,-0.734,0.0,0,0.0,1
164599,219248,--,0.595,0.389,-0.734,0.0,0,0.0,1
164621,219253,--,0.595,0.389,-0.734,0.0,0,0.0,1
164636,219259,--,0.595,0.389,-0.734,0.0,0,0.0,1
164637,219261,--,0.590,0.392,-0.754,0.0,0,0.0,1
164625,219260,--,0.590,0.392,-0.754,0.0,0,0.0,1
164598,219236,--,0.590,0.392,-0.754,0.0,0,0.0,1
164540,219197,--,0.569,0.393,-0.757,0.0,0,0.0,1
164428,219144,--,0.533,0.390,-0.749,0.0,0,0.0,1
164293,219075,--,0.501,0.388,-0.748,0.0,0,0.0,1
164183,219014,--,0.478,0.389,-0.759,0.0,0,0.0,1
164100,218962,--,0.462,0.394,-0.779,0.0,0,0.0,1
164031,218933,--,0.451,0.401,-0.807,0.0,0,0.0,1
163991,218904,--,0.451,0.401,-0.807,0.0,0,0.0,1
163962,218886,--,0.439,0.404,-0.831,0.0,0,0.0,1
163945,218873,--,0.439,0.404,-0.831,0.0,0,0.0,1
163946,218871,--,0.439,0.404,-0.831,0.0,0,0.0,1
163956,218871,--,0.439,0.404,-0.831,0.0,0,0.0,1
163974,218890,--,0.421,0.404,-0.842,0.0,0,0.0,1
163982,218897,--,0.421,0.404,-0.842,0.0,0,0.0,1
163996,218912,--,0.421,0.404,-0.842,0.0,0,0.0,1
164019,218911,--,0.421,0.404,-0.842,0.0,0,0.0,1
164034,218923,--,0.402,0.407,-0.841,0.0,0,0.0,1
164050,218940,--,0.402,0.407,-0.841,0.0,0,0.0,1
164057,218945,--,0.402,0.407,-0.841,0.0,0,0.0,1
164064,218949,--,0.388,0.409,-0.833,0.0,0,0.0,1
164082,218952,--,0.378,0.411,-0.834,0.0,0,0.0,1
164081,218957,--,0.373,0.415,-0.843,0.0,0,0.0,1
164109,218969,--,0.372,0.417,-0.851,0.0,0,0.0,1
164110,218962,--,0.372,0.418,-0.853,0.0,0,0.0,1
164126,218987,--,0.372,0.419,-0.852,0.0,0,0.0,1
164142,218994,--,0.372,0.419,-0.852,0.0,0,0.0,1
164158,219011,--,0.371,0.419,-0.854,0.0,0,0.0,1
164160,219011,--,0.371,0.419,-0.854,0.0,0,0.0,1
164170,219033,--,0.371,0.419,-0.854,0.0,0,0.0,1
164170,219020,--,0.371,0.419,-0.854,0.0,0,0.0,1
164173,219025,--,0.368,0.418,-0.857,0.0,0,0.0,1
164172,219030,--,0.368,0.418,-0.857,0.0,0,0.0,1
164165,219022,--,0.368,0.418,-0.857,0.0,0,0.0,1
164159,219020,--,0.364,0.416,-0.858,0.0,0,0.0,1
164157,219008,--,0.364,0.416,-0.858,0.0,0,0.0,1
164151,219004,--,0.364,0.416,-0.858,0.0,0,0.0,1
164148,219012,--,0.363,0.415,-0.864,0.0,0,0.0,1
164154,219003,--,0.366,0.419,-0.875,0.0,0,0.0,1
164150,218993,--,0.368,0.421,-0.880,0.0,0,0.0,1
164158,218992,--,0.357,0.415,-0.873,0.0,0,0.0,1
164160,219005,--,0.335,0.407,-0.864,0.0,0,0.0,1
164164,219001,--,0.325,0.406,-0.866,0.0,0,0.0,1
164178,219001,--,0.325,0.406,-0.866,0.0,0,0.0,1
164194,219013,--,0.325,0.406,-0.866,0.0,0,0.0,1
164202,219025,--,0.325,0.406,-0.866,0.0,0,0.0,1
164212,219011,--,0.336,0.414,-0.876,0.0,0,0.0,1
164227,219032,--,0.336,0.414,-0.876,0.0,0,0.0,1
164247,219041,--,0.336,0.414,-0.876,0.0,0,0.0,1
164257,219048,--,0.336,0.414,-0.876,0.0,0,0.0,1
164272,219051,--,0.349,0.419,-0.878,0.0,0,0.0,1
164295,219056,--,0.349,0.419,-0.878,0.0,0,0.0,1
164318,219060,--,0.349,0.419,-0.878,0.0,0,0.0,1
164324,219056,--,0.349,0.419,-0.878,0.0,0,0.0,1
164343,219062,--,0.355,0.419,-0.866,0.0,0,0.0,1
164338,219054,--,0.361,0.417,-0.847,0.0,0,0.0,1
164352,219054,--,0.367,0.417,-0.831,0.0,0,0.0,1
164359,219055,--,0.386,0.422,-0.818,0.0,0,0.0,1
164364,219050,--,0.409,0.425,-0.801,0.0,0,0.0,1
164355,219053,--,0.427,0.423,-0.779,0.0,0,0.0,1
164363,219050,--,0.427,0.423,-0.779,0.0,0,0.0,1
164361,219029,--,0.453,0.426,-0.774,0.0,0,0.0,1
164364,219043,--,0.453,0.426,-0.774,0.0,0,0.0,1
164360,219032,--,0.453,0.426,-0.774,0.0,0,0.0,1
164351,219028,--,0.453,0.426,-0.774,0.0,0,0.0,1
164355,219012,--,0.488,0.436,-0.789,0.0,0,0.0,1
164363,219009,--,0.488,0.436,-0.789,0.0,0,0.0,1
164346,218993,--,0.488,0.436,-0.789,0.0,0,0.0,1
164348,218989,--,0.488,0.436,-0.789,0.0,0,0.0,1
164349,218980,--,0.519,0.443,-0.802,0.0,0,0.0,1
164355,218962,--,0.519,0.443,-0.802,0.0,0,0.0,1
164345,218943,--,0.538,0.446,-0.795,0.0,0,0.0,1
164336,218932,--,0.549,0.444,-0.774,0.0,0,0.0,1
164318,218929,--,0.554,0.442,-0.748,0.0,0,0.0,1
164306,218921,--,0.549,0.439,-0.729,0.0,0,0.0,1
164294,218919,--,0.538,0.432,-0.718,0.0,0,0.0,1
164285,218898,--,0.535,0.429,-0.710,0.0,0,0.0,1
164287,218889,--,0.535,0.429,-0.710,0.0,0,0.0,1
164277,218880,--,0.535,0.429,-0.710,0.0,0,0.0,1
164284,218868,--,0.535,0.429,-0.710,0.0,0,0.0,1
164286,218856,--,0.548,0.430,-0.706,0.0,0,0.0,1
164292,218863,--,0.548,0.430,-0.706,0.0,0,0.0,1
164303,218850,--,0.548,0.430,-0.706,0.0,0,0.0,1
164309,218845,--,0.548,0.430,-0.706,0.0,0,0.0,1
164310,218846,--,0.563,0.432,-0.703,0.0,0,0.0,1
164323,218843,--,0.563,0.432,-0.703,0.0,0,0.0,1
164335,218832,--,0.563,0.432,-0.703,0.0,0,0.0,1
164339,218831,--,0.563,0.432,-0.703,0.0,0,0.0,1
164338,218830,--,0.575,0.431,-0.698,0.0,0,0.0,1
164341,218832,--,0.586,0.430,-0.688,0.0,0,0.0,1
164328,218824,--,0.593,0.428,-0.683,0.0,0,0.0,1
164301,218796,--,0.602,0.426,-0.682,0.0,0,0.0,1
164240,218757,--,0.614,0.428,-0.677,0.0,0,0.0,1
164135,218709,--,0.627,0.431,-0.671,0.0,0,0.0,1
164026,218639,--,0.626,0.427,-0.670,0.0,0,0.0,1
163928,218586,--,0.626,0.427,-0.670,0.0,0,0.0,1
163839,218533,--,0.626,0.427,-0.670,0.0,0,0.0,1
163769,218506,--,0.626,0.427,-0.670,0.0,0,0.0,1
163726,218477,--,0.618,0.419,-0.669,0.0,0,0.0,1
163684,218456,--,0.618,0.419,-0.669,0.0,0,0.0,1
163659,218424,--,0.618,0.419,-0.669,0.0,0,0.0,1
163648,218425,--,0.618,0.419,-0.669,0.0,0,0.0,1
163640,218417,--,0.618,0.419,-0.669,0.0,0,0.0,1
163643,218424,--,0.619,0.418,-0.665,0.0,0,0.0,1
163661,218433,--,0.619,0.418,-0.665,0.0,0,0.0,1
163674,218453,--,0.631,0.422,-0.659,0.0,0,0.0,1
163693,218467,--,0.635,0.424,-0.655,0.0,0,0.0,1
163716,218479,--,0.628,0.421,-0.652,0.0,0,0.0,1
163731,218479,--,0.620,0.416,-0.648,0.0,0,0.0,1
163734,218473,--,0.616,0.412,-0.648,0.0,0,0.0,1
163741,218467,--,0.616,0.412,-0.648,0.0,0,0.0,1
163750,218471,--,0.616,0.412,-0.648,0.0,0,0.0,1
163749,218468,--,0.616,0.412,-0.648,0.0,0,0.0,1
163760,218475,--,0.616,0.414,-0.644,0.0,0,0.0,1
163777,218477,--,0.616,0.414,-0.644,0.0,0,0.0,1
163806,218481,--,0.616,0.414,-0.644,0.0,0,0.0,1
163817,218502,--,0.616,0.414,-0.644,0.0,0,0.0,1
163845,218493,--,0.616,0.415,-0.642,0.0,0,0.0,1
163866,218513,--,0.616,0.415,-0.642,0.0,0,0.0,1
163882,218527,--,0.616,0.415,-0.642,0.0,0,0.0,1
163902,218534,--,0.616,0.415,-0.642,0.0,0,0.0,1
163918,218533,--,0.621,0.416,-0.641,0.0,0,0.0,1
163915,218523,--,0.624,0.418,-0.644,0.0,0,0.0,1
163918,218525,--,0.624,0.418,-0.649,0.0,0,0.0,1
163905,218508,--,0.630,0.418,-0.651,0.0,0,0.0,1
163901,218509,--,0.637,0.420,-0.653,0.0,0,0.0,1
163893,218499,--,0.636,0.419,-0.658,0.0,0,0.0,1
163883,218500,--,0.636,0.419,-0.658,0.0,0,0.0,1
163873,218480,--,0.627,0.418,-0.663,0.0,0,0.0,1
163883,218483,--,0.627,0.418,-0.663,0.0,0,0.0,1
163879,218481,--,0.627,0.418,-0.663,0.0,0,0.0,1
163899,218475,--,0.627,0.418,-0.663,0.0,0,0.0,1
163901,218483,--,0.622,0.419,-0.659,0.0,0,0.0,1
163906,218493,--,0.622,0.419,-0.659,0.0,0,0.0,1
163923,218500,--,0.621,0.420,-0.653,0.0,0,0.0,1
163935,218492,--,0.621,0.420,-0.653,0.0,0,0.0,1
163946,218512,--,0.621,0.420,-0.653,0.0,0,0.0,1
163957,218509,--,0.621,0.420,-0.653,0.0,0,0.0,1
163974,218524,--,0.619,0.418,-0.651,0.0,0,0.0,1
163983,218529,--,0.619,0.418,-0.654,0.0,0,0.0,1
163987,218515,--,0.620,0.418,-0.659,0.0,0,0.0,1
163998,218526,--,0.619,0.417,-0.658,0.0,0,0.0,1
163999,218511,--,0.616,0.416,-0.655,0.0,0,0.0,1
164017,218534,--,0.612,0.416,-0.653,0.0,0,0.0,1
164023,218536,--,0.612,0.416,-0.653,0.0,0,0.0,1
164036,218532,--,0.612,0.416,-0.653,0.0,0,0.0,1
164041,218537,--,0.610,0.413,-0.650,0.0,0,0.0,1
164035,218534,--,0.610,0.413,-0.650,0.0,0,0.0,1
164053,218535,--,0.610,0.413,-0.650,0.0,0,0.0,1
164042,218547,--,0.610,0.413,-0.650,0.0,0,0.0,2
164049,218549,--,0.610,0.412,-0.646,0.0,0,0.0,2
164052,218543,--,0.610,0.412,-0.646,0.0,0,0.0,2
164056,218539,--,0.610,0.412,-0.646,0.0,0,0.0,2
164076,218548,--,0.610,0.412,-0.646,0.0,0,0.0,2
164072,218544,--,0.610,0.412,-0.646,0.0,0,0.0,2
164083,218551,--,0.613,0.415,-0.645,0.0,0,0.0,2
164079,218550,--,0.616,0.417,-0.647,0.0,0,0.0,2
164084,218553,--,0.621,0.420,-0.648,0.0,0,0.0,2
164080,218550,--,0.625,0.421,-0.647,0.0,0,0.0,2
164079,218550,--,0.625,0.419,-0.648,0.0,0,0.0,2
164073,218543,--,0.623,0.417,-0.649,0.0,0,0.0,2
164080,218550,--,0.622,0.417,-0.652,0.0,0,0.0,2
164081,218546,--,0.622,0.417,-0.652,0.0,0,0.0,2
164067,218538,--,0.622,0.417,-0.652,0.0,0,0.0,2
164070,218548,--,0.622,0.417,-0.652,0.0,0,0.0,2
164075,218557,--,0.622,0.418,-0.655,0.0,0,0.0,2
164068,218554,--,0.622,0.418,-0.655,0.0,0,0.0,2
164067,218554,--,0.622,0.418,-0.655,0.0,0,0.0,2
164078,218565,--,0.622,0.418,-0.655,0.0,0,0.0,2
164064,218566,--,0.621,0.417,-0.654,0.0,0,0.0,2
164077,218578,--,0.621,0.417,-0.654,0.0,0,0.0,2
164082,218573,--,0.621,0.417,-0.654,0.0,0,0.0,2
164085,218579,--,0.621,0.417,-0.654,0.0,0,0.0,2
164101,218583,--,0.623,0.418,-0.655,0.0,0,0.0,2
164100,218588,--,0.627,0.421,-0.656,0.0,0,0.0,2
164108,218583,--,0.627,0.419,-0.655,0.0,0,0.0,2
164104,218595,--,0.621,0.416,-0.651,0.0,0,0.0,2
164112,218582,--,0.621,0.416,-0.647,0.0,0,0.0,2
164120,218590,--,0.626,0.420,-0.646,0.0,0,0.0,2
164124,218590,--,0.626,0.420,-0.646,0.0,0,0.0,2
164115,218583,--,0.634,0.423,-0.648,0.0,0,0.0,2
164118,218577,--,0.634,0.423,-0.648,0.0,0,0.0,2
164072,218558,--,0.634,0.423,-0.648,0.0,0,0.0,2
164020,218527,--,0.634,0.423,-0.648,0.0,0,0.0,2
163956,218491,--,0.633,0.423,-0.653,0.0,0,0.0,2
163888,218454,--,0.633,0.423,-0.653,0.0,0,0.0,2
163816,218413,--,0.633,0.423,-0.653,0.0,0,0.0,2
163763,218387,--,0.633,0.423,-0.653,0.0,0,0.0,2
163710,218361,--,0.628,0.419,-0.656,0.0,0,0.0,2
163670,218345,--,0.628,0.419,-0.656,0.0,0,0.0,2
163634,218322,--,0.624,0.417,-0.655,0.0,0,0.0,2
163627,218325,--,0.624,0.418,-0.656,0.0,0,0.0,2
163615,218333,--,0.627,0.420,-0.655,0.0,0,0.0,2
163622,218342,--,0.624,0.417,-0.656,0.0,0,0.0,2
163608,218325,--,0.617,0.414,-0.656,0.0,0,0.0,2
163618,218338,--,0.614,0.415,-0.655,0.0,0,0.0,2
163631,218358,--,0.614,0.415,-0.655,0.0,0,0.0,2
163641,218353,--,0.614,0.415,-0.655,0.0,0,0.0,2
163640,218357,--,0.614,0.415,-0.655,0.0,0,0.0,2
163645,218363,--,0.614,0.416,-0.651,0.0,0,0.0,2
163638,218365,--,0.614,0.416,-0.651,0.0,0,0.0,2
163653,218365,--,0.614,0.416,-0.651,0.0,0,0.0,2
163642,218371,--,0.614,0.416,-0.651,0.0,0,0.0,2
163643,218364,--,0.614,0.415,-0.647,0.0,0,0.0,2
163652,218364,--,0.614,0.415,-0.647,0.0,0,0.0,2
163647,218362,--,0.614,0.415,-0.647,62.5,50,0.0,3
163649,218376,--,0.614,0.415,-0.647,62.5,50,0.0,3
163662,218377,--,0.613,0.413,-0.649,62.5,50,0.0,3
163673,218377,--,0.612,0.415,-0.653,62.5,50,0.0,3
163672,218379,--,0.611,0.419,-0.651,62.5,50,0.0,3
163677,218401,--,0.611,0.423,-0.644,62.5,50,0.0,3
163680,218399,--,0.611,0.429,-0.629,62.5,50,0.0,3
163694,218410,--,0.610,0.435,-0.611,62.5,50,0.0,3
163687,218404,--,0.607,0.442,-0.593,62.5,50,0.0,3
163677,218394,--,0.607,0.442,-0.593,62.5,50,0.0,3
163660,218389,--,0.607,0.442,-0.593,62.5,50,0.0,3
163674,218384,--,0.607,0.442,-0.593,62.5,50,0.0,3
163666,218379,--,0.601,0.447,-0.582,62.5,50,0.0,3
163668,218380,--,0.601,0.447,-0.582,62.5,50,0.0,3
163669,218380,--,0.601,0.447,-0.582,62.5,50,0.0,3
163661,218382,--,0.601,0.447,-0.582,62.5,50,0.0,3
163665,218390,--,0.588,0.449,-0.578,62.5,50,0.0,3
163667,218391,--,0.588,0.449,-0.578,62.5,50,0.0,3
163666,218392,--,0.588,0.449,-0.578,62.5,50,0.0,3
163678,218400,--,0.569,0.444,-0.580,62.5,50,0.0,3
163688,218398,--,0.553,0.436,-0.595,62.5,50,0.0,3
163698,218408,--,0.548,0.430,-0.633,62.5,50,0.0,3
163715,218429,--,0.549,0.429,-0.686,62.5,50,0.0,3
163724,218445,--,0.558,0.428,-0.729,62.5,50,0.0,3
163733,218457,--,0.575,0.434,-0.764,62.5,50,0.0,3
163756,218463,--,0.575,0.434,-0.764,62.5,50,0.0,3
163786,218503,--,0.575,0.434,-0.764,62.5,50,0.0,3
163791,218514,--,0.571,0.434,-0.784,62.5,50,0.0,3
163821,218537,--,0.571,0.434,-0.784,62.7,52,0.0,3
163840,218564,--,0.571,0.434,-0.784,62.7,52,0.0,3
163849,218600,--,0.539,0.419,-0.766,62.7,52,0.0,3
163870,218616,--,0.539,0.419,-0.766,62.7,52,0.0,3
163882,218623,--,0.539,0.419,-0.766,62.7,52,0.0,3
163889,218619,--,0.539,0.419,-0.766,62.7,52,0.0,3
163890,218625,--,0.510,0.403,-0.736,62.7,52,0.0,3
163888,218614,--,0.510,0.403,-0.736,62.7,52,0.0,3
163876,218604,--,0.507,0.398,-0.759,62.7,52,0.0,3
163872,218593,--,0.531,0.406,-0.846,62.7,52,0.0,3
163878,218592,--,0.543,0.404,-0.914,62.7,52,0.0,3
163865,218581,--,0.536,0.388,-0.898,62.7,52,0.0,3
163876,218588,--,0.547,0.372,-0.806,62.7,52,0.0,3
163886,218598,--,0.588,0.369,-0.708,62.7,52,0.0,3
163906,218617,--,0.588,0.369,-0.708,62.7,52,0.0,3
163915,218632,--,0.588,0.369,-0.708,62.7,52,0.0,3
163910,218626,--,0.588,0.369,-0.708,62.7,52,0.0,3
163906,218629,--,0.629,0.377,-0.669,62.7,52,0.0,3
163898,218625,--,0.629,0.377,-0.669,62.7,52,0.0,3
163903,218629,--,0.629,0.377,-0.669,62.7,52,0.0,3
163905,218629,--,0.629,0.377,-0.669,62.7,52,0.0,3
163912,218632,--,0.629,0.377,-0.669,62.7,52,0.0,3
163911,218636,--,0.645,0.385,-0.688,62.7,52,0.0,3
163915,218641,--,0.645,0.385,-0.688,62.7,52,0.0,3
163913,218641,--,0.645,0.385,-0.688,62.7,52,0.0,3
163920,218639,--,0.647,0.397,-0.718,62.7,52,0.0,3
163932,218649,--,0.649,0.415,-0.729,62.7,52,0.0,3
163934,218645,--,0.644,0.428,-0.711,62.7,52,0.0,3
163951,218650,--,0.629,0.437,-0.678,62.7,52,0.0,3
163971,218666,--,0.609,0.438,-0.653,62.7,52,0.0,3
163981,218680,--,0.603,0.435,-0.643,62.7,52,0.0,3
163986,218689,--,0.603,0.435,-0.643,62.7,52,0.0,3
164007,218684,--,0.618,0.440,-0.641,62.7,52,0.0,3
164011,218677,--,0.618,0.440,-0.641,62.7,52,0.0,3
164026,218679,--,0.618,0.440,-0.641,62.7,52,0.0,3
164020,218667,--,0.618,0.440,-0.641,62.7,52,0.0,3
164010,218654,--,0.641,0.451,-0.637,62.7,52,0.0,3
164015,218622,--,0.641,0.451,-0.637,62.7,52,0.0,3
164004,218587,--,0.641,0.451,-0.637,62.7,52,0.0,3
163974,218572,--,0.641,0.451,-0.637,62.7,52,0.0,3
163935,218541,--,0.656,0.461,-0.624,62.7,52,0.0,3
163885,218509,--,0.656,0.461,-0.624,62.7,52,0.0,3
163837,218475,--,0.665,0.469,-0.608,62.7,52,0.0,3
163774,218441,--,0.677,0.478,-0.601,62.7,52,0.0,3
163723,218409,--,0.677,0.483,-0.601,62.7,52,0.0,3
163680,218381,--,0.656,0.483,-0.607,62.7,52,0.0,3
163638,218364,--,0.632,0.478,-0.615,62.7,52,0.0,3
163616,218357,--,0.617,0.466,-0.627,62.7,52,0.0,3
163610,218350,--,0.617,0.466,-0.627,62.7,52,0.0,3
163593,218344,--,0.617,0.466,-0.627,62.7,52,0.0,3
163610,218341,--,0.617,0.466,-0.627,62.7,52,0.0,3
163620,218360,--,0.609,0.452,-0.639,62.7,52,0.0,3
163630,218362,--,0.609,0.452,-0.639,62.7,52,0.0,3
163627,218360,--,0.609,0.452,-0.639,62.7,52,0.0,3
163642,218379,--,0.609,0.452,-0.639,62.7,52,0.0,3
163650,218384,--,0.606,0.441,-0.650,62.7,52,0.0,3
163660,218374,--,0.606,0.441,-0.650,62.7,52,0.0,3
163665,218379,--,0.606,0.441,-0.650,62.7,52,0.0,3
163670,218382,--,0.606,0.441,-0.650,62.7,52,0.0,3
163669,218379,--,0.607,0.435,-0.656,62.7,52,0.0,3
163675,218368,--,0.607,0.431,-0.656,62.7,52,0.0,3
163673,218385,--,0.610,0.431,-0.652,62.7,52,0.0,3
163677,218394,--,0.615,0.437,-0.647,0.0,0,0.0,3
163690,218390,--,0.625,0.445,-0.642,62.7,52,0.0,3
163693,218397,--,0.631,0.451,-0.636,62.7,52,0.0,3
163689,218394,--,0.626,0.453,-0.633,62.7,52,0.0,3
163695,218394,--,0.619,0.453,-0.634,62.7,52,0.0,3
163698,218390,--,0.619,0.453,-0.634,62.7,52,0.0,3
163693,218384,--,0.619,0.453,-0.634,62.7,52,0.0,3
163675,218376,--,0.619,0.453,-0.634,62.7,52,0.0,3
163668,218365,--,0.614,0.450,-0.638,62.7,52,0.0,3
163660,218350,--,0.614,0.450,-0.638,62.7,52,0.0,3
163649,218339,--,0.614,0.450,-0.638,62.7,52,0.0,3
163648,218338,--,0.611,0.446,-0.641,62.7,52,0.0,3
163630,218324,--,0.611,0.446,-0.641,62.7,52,0.0,3
163623,218312,--,0.611,0.446,-0.641,62.7,52,0.0,3
163620,218313,--,0.609,0.442,-0.644,62.7,52,0.0,3
163610,218299,--,0.609,0.441,-0.646,62.7,52,0.0,3
163616,218302,--,0.610,0.443,-0.645,62.7,52,0.0,3
163610,218318,--,0.615,0.447,-0.642,62.7,52,0.0,3
163620,218312,--,0.624,0.452,-0.639,62.7,52,0.0,3
163627,218309,--,0.624,0.452,-0.639,62.7,52,0.0,3
163608,218309,--,0.624,0.452,-0.639,62.7,52,0.0,3
163626,218309,--,0.627,0.454,-0.635,62.7,52,0.0,3
163625,218306,--,0.627,0.454,-0.635,62.7,52,0.0,3
163634,218300,--,0.627,0.454,-0.635,62.7,52,0.0,3
163634,218297,--,0.622,0.452,-0.634,62.7,52,0.0,3
163632,218315,--,0.622,0.452,-0.634,62.7,52,0.0,3
163646,218300,--,0.622,0.452,-0.634,62.7,52,0.0,3
163640,218300,--,0.622,0.452,-0.634,62.7,52,0.0,3
163648,218290,--,0.616,0.449,-0.636,62.7,52,0.0,3
163647,218296,--,0.616,0.449,-0.636,62.7,52,0.0,3
163648,218291,--,0.616,0.449,-0.636,62.7,52,0.0,3
163650,218286,--,0.612,0.446,-0.644,62.7,52,0.0,3
163649,218285,--,0.610,0.444,-0.647,62.7,52,0.0,3
163667,218281,--,0.607,0.442,-0.647,62.7,52,0.0,3
163660,218289,--,0.608,0.443,-0.646,62.7,52,0.0,3
163669,218293,--,0.611,0.446,-0.642,62.7,52,0.0,3
163674,218301,--,0.614,0.448,-0.640,62.7,52,0.0,3
163674,218299,--,0.614,0.448,-0.640,62.7,52,0.0,3
163673,218300,--,0.614,0.448,-0.640,63.0,56,0.0,3
163669,218293,--,0.613,0.448,-0.642,63.0,56,0.0,3
163677,218296,--,0.613,0.448,-0.642,63.0,56,0.0,3
163679,218291,--,0.612,0.446,-0.645,63.0,56,0.0,3
163683,218285,--,0.612,0.446,-0.645,63.0,56,0.0,3
163669,218277,--,0.612,0.446,-0.645,63.0,56,0.0,3
163668,218270,--,0.612,0.446,-0.645,63.0,56,0.0,3
163666,218250,--,0.610,0.444,-0.647,63.0,56,0.0,3
163671,218257,--,0.610,0.444,-0.647,63.0,56,0.0,3
163674,218265,--,0.610,0.444,-0.647,63.0,56,0.0,3
163679,218253,--,0.608,0.443,-0.646,63.0,56,0.0,3
163672,218249,--,0.608,0.444,-0.645,63.0,56,0.0,3
163684,218262,--,0.610,0.446,-0.645,63.0,56,0.0,3
163682,218256,--,0.610,0.446,-0.645,63.0,56,0.0,3
163685,218258,--,0.610,0.444,-0.646,63.0,56,0.0,3
163692,218256,--,0.610,0.444,-0.646,63.0,56,0.0,3
163693,218260,--,0.611,0.443,-0.645,63.0,56,0.0,3
163702,218256,--,0.611,0.443,-0.645,63.0,56,0.0,3
163701,218259,--,0.611,0.443,-0.645,63.0,56,0.0,3
163698,218249,--,0.611,0.443,-0.645,63.0,56,0.0,3
163722,218249,--,0.611,0.444,-0.645,63.0,56,0.0,3
163728,218266,--,0.611,0.444,-0.645,63.0,56,0.0,3
163722,218260,--,0.611,0.444,-0.645,63.0,56,0.0,3
163727,218260,--,0.611,0.446,-0.645,63.0,56,0.0,3
163727,218250,--,0.611,0.446,-0.645,63.0,56,0.0,3
163728,218253,--,0.611,0.446,-0.645,63.0,56,0.0,3
163719,218241,--,0.612,0.447,-0.643,63.0,56,0.0,3
163698,218248,--,0.612,0.448,-0.642,63.0,56,0.0,3
163664,218215,--,0.610,0.446,-0.645,63.0,56,0.0,3
163622,218171,--,0.608,0.442,-0.647,63.0,56,0.0,3
163562,218143,--,0.610,0.441,-0.650,63.0,56,0.0,3
163507,218102,--,0.612,0.443,-0.650,63.0,56,0.0,3
163455,218074,--,0.612,0.443,-0.650,63.0,56,0.0,3
163402,218044,--,0.612,0.443,-0.650,63.0,56,0.0,3
163360,218026,--,0.612,0.443,-0.650,63.0,56,0.0,3
163337,218011,--,0.612,0.444,-0.646,63.0,56,0.0,3
163329,218001,--,0.612,0.444,-0.646,63.0,56,0.0,3
163296,218005,--,0.612,0.444,-0.646,63.0,56,0.0,3
163290,218001,--,0.613,0.446,-0.644,63.0,56,0.0,3
163287,218002,--,0.613,0.446,-0.644,63.0,56,0.0,3
163290,217992,--,0.613,0.446,-0.644,63.0,56,0.0,3
163289,217995,--,0.613,0.447,-0.642,63.0,56,0.0,3
163302,217987,--,0.613,0.447,-0.642,63.0,56,0.0,3
163300,217994,--,0.613,0.447,-0.642,63.0,56,0.0,3
163299,217980,--,0.612,0.447,-0.641,63.0,56,0.0,3
163288,217970,--,0.611,0.447,-0.644,63.0,56,0.0,3
163300,217963,--,0.610,0.445,-0.648,63.0,56,0.0,3
163294,217961,--,0.608,0.442,-0.649,63.0,56,0.0,3
163285,217958,--,0.607,0.441,-0.649,63.0,56,0.0,3
163292,217951,--,0.607,0.441,-0.649,63.0,56,0.0,3
163296,217943,--,0.608,0.442,-0.648,63.0,56,0.0,3
163293,217953,--,0.608,0.442,-0.648,0.0,0,0.0,3
163311,217964,--,0.608,0.442,-0.648,63.0,56,0.0,3
163320,217959,--,0.611,0.445,-0.645,63.0,56,0.0,3
163324,217973,--,0.611,0.445,-0.645,63.0,56,0.0,3
163311,217975,--,0.611,0.445,-0.645,63.0,56,0.0,3
163318,217967,--,0.614,0.447,-0.644,63.0,56,0.0,3
163308,217958,--,0.614,0.447,-0.644,63.0,56,0.0,3
163293,217950,--,0.614,0.447,-0.644,63.0,56,0.0,3
163290,217944,--,0.613,0.444,-0.644,63.0,56,0.0,3
163274,217930,--,0.613,0.444,-0.644,63.0,56,0.0,3
163278,217910,--,0.611,0.443,-0.645,63.0,56,0.0,3
163275,217915,--,0.609,0.442,-0.647,63.0,56,0.0,3
163251,217905,--,0.608,0.442,-0.648,63.0,56,0.0,3
163239,217896,--,0.608,0.443,-0.646,63.0,56,0.0,3
163248,217895,--,0.609,0.444,-0.646,63.0,56,0.0,3
163241,217899,--,0.609,0.444,-0.646,63.0,56,0.0,3
163241,217899,--,0.609,0.444,-0.646,63.0,56,0.0,3
163251,217895,--,0.610,0.445,-0.647,63.0,56,0.0,3
163243,217904,--,0.610,0.445,-0.647,63.0,56,0.0,3
163252,217900,--,0.610,0.445,-0.647,63.0,56,0.0,3
163258,217905,--,0.610,0.445,-0.647,63.0,56,0.0,3
163263,217916,--,0.611,0.446,-0.646,63.0,56,0.0,3
163271,217914,--,0.611,0.446,-0.646,63.0,56,0.0,3
163285,217904,--,0.611,0.446,-0.646,63.0,56,0.0,3
163286,217904,--,0.612,0.446,-0.644,63.0,56,0.0,3
163286,217895,--,0.612,0.446,-0.644,63.0,56,0.0,3
163290,217893,--,0.612,0.446,-0.644,63.0,56,0.0,3
163290,217896,--,0.610,0.444,-0.644,63.0,56,0.0,3
163301,217909,--,0.609,0.443,-0.646,63.0,56,0.0,3
163296,217902,--,0.614,0.446,-0.646,63.0,56,0.0,3
163293,217894,--,0.616,0.448,-0.644,63.0,56,0.0,3
163296,217896,--,0.614,0.447,-0.645,63.0,56,0.0,3
163308,217901,--,0.613,0.446,-0.648,63.0,56,0.0,3
163306,217884,--,0.613,0.446,-0.648,63.0,56,0.0,3
163304,217876,--,0.613,0.446,-0.648,63.0,56,0.0,3
163310,217887,--,0.613,0.446,-0.648,63.0,56,0.0,3
163314,217878,--,0.610,0.443,-0.650,63.0,56,0.0,3
163306,217871,--,0.610,0.443,-0.650,63.0,56,0.0,3
163309,217861,--,0.610,0.443,-0.650,63.0,56,0.0,3
163312,217850,--,0.608,0.443,-0.652,63.0,56,0.0,3
163309,217852,--,0.608,0.443,-0.652,63.0,56,0.0,3
163311,217846,--,0.608,0.443,-0.652,63.0,56,0.0,3
163313,217860,--,0.611,0.445,-0.650,63.0,56,0.0,3
163318,217867,--,0.611,0.445,-0.650,63.0,56,0.0,3
163328,217862,--,0.612,0.447,-0.647,63.0,56,0.0,3
163322,217867,--,0.610,0.445,-0.648,63.0,56,0.0,3
163338,217870,--,0.609,0.444,-0.648,63.0,56,0.0,3
163340,217875,--,0.608,0.444,-0.649,63.0,56,0.0,3
163334,217878,--,0.608,0.444,-0.651,63.0,56,0.0,3
163337,217875,--,0.608,0.444,-0.651,63.2,57,0.0,3
163337,217868,--,0.607,0.443,-0.651,63.2,57,0.0,3
163345,217868,--,0.607,0.443,-0.651,63.2,57,0.0,3
163351,217872,--,0.607,0.443,-0.651,63.2,57,0.0,3
163363,217882,--,0.606,0.444,-0.652,63.2,57,0.0,3
163374,217877,--,0.606,0.444,-0.652,63.2,57,0.0,3
163379,217894,--,0.606,0.444,-0.652,63.2,57,0.0,3
163398,217895,--,0.609,0.446,-0.650,63.2,57,0.0,3
163402,217905,--,0.609,0.446,-0.650,63.2,57,0.0,3
163410,217905,--,0.609,0.446,-0.650,63.2,57,0.0,3
163402,217904,--,0.609,0.446,-0.650,63.2,57,0.0,3
163413,217915,--,0.612,0.449,-0.645,63.2,57,0.0,3
163418,217913,--,0.611,0.449,-0.645,63.2,57,0.0,3
163394,217897,--,0.609,0.447,-0.647,63.2,57,0.0,3
163364,217883,--,0.608,0.445,-0.651,63.2,57,0.0,3
163312,217842,--,0.607,0.443,-0.652,63.2,57,0.0,3
163258,217830,--,0.607,0.443,-0.652,63.2,57,0.0,3
163216,217784,--,0.606,0.443,-0.651,63.2,57,0.0,3
163166,217744,--,0.606,0.443,-0.651,63.2,57,0.0,3
163120,217736,--,0.606,0.443,-0.651,63.2,57,0.0,3
163076,217703,--,0.607,0.446,-0.649,63.2,57,0.0,3
163047,217699,--,0.607,0.446,-0.649,63.2,57,0.0,3
163033,217677,--,0.607,0.446,-0.649,63.2,57,0.0,3
163006,217672,--,0.607,0.446,-0.649,63.2,57,0.0,3
162998,217665,--,0.608,0.447,-0.647,63.2,57,0.0,3
162998,217671,--,0.608,0.447,-0.647,63.2,57,0.0,3
162996,217668,--,0.608,0.447,-0.647,63.2,57,0.0,3
163006,217661,--,0.607,0.447,-0.648,63.2,57,0.0,3
163002,217664,--,0.607,0.447,-0.648,63.2,57,0.0,3
163010,217667,--,0.607,0.447,-0.649,63.2,57,0.0,3
163013,217670,--,0.606,0.445,-0.650,63.2,57,0.0,3
163018,217672,--,0.606,0.444,-0.651,63.2,57,0.0,3
163015,217661,--,0.607,0.444,-0.651,63.2,57,0.0,3
163024,217665,--,0.608,0.447,-0.650,63.2,57,0.0,3
163019,217658,--,0.608,0.447,-0.650,63.2,57,0.0,3
163017,217655,--,0.609,0.447,-0.649,63.2,57,0.0,3
163031,217661,--,0.609,0.447,-0.649,63.2,57,0.0,3
163031,217662,--,0.609,0.447,-0.649,63.2,57,93.9,3
163045,217664,--,0.609,0.447,-0.649,63.2,57,93.9,3
163043,217660,--,0.607,0.446,-0.648,63.2,57,93.9,3
163053,217670,--,0.607,0.446,-0.648,63.2,57,93.9,3
163043,217673,--,0.607,0.446,-0.648,63.2,57,93.9,3
163041,217664,--,0.607,0.447,-0.649,63.2,57,93.9,3
163043,217660,--,0.607,0.447,-0.649,63.2,57,93.9,3
163021,217646,--,0.607,0.447,-0.649,63.2,57,93.9,3
163021,217632,--,0.606,0.446,-0.650,63.2,57,93.9,3
163010,217620,--,0.606,0.445,-0.650,63.2,57,93.9,3
163000,217618,--,0.606,0.445,-0.650,63.2,57,93.9,3
162996,217613,--,0.606,0.446,-0.651,63.2,57,93.9,3
162995,217609,--,0.607,0.448,-0.650,63.2,57,93.9,3
162982,217595,--,0.608,0.448,-0.648,63.2,57,93.9,3
162991,217611,--,0.608,0.448,-0.648,63.2,57,93.9,3
162987,217603,--,0.608,0.448,-0.648,63.2,57,93.9,3
162990,217590,--,0.608,0.448,-0.648,63.2,57,93.9,3
162995,217593,--,0.608,0.447,-0.648,63.2,57,93.9,3
162993,217597,--,0.608,0.447,-0.648,63.2,57,93.9,3
163004,217598,--,0.608,0.447,-0.648,63.2,57,93.9,3
163009,217594,--,0.608,0.445,-0.650,63.2,57,93.9,3
163019,217601,--,0.608,0.445,-0.650,63.2,57,93.9,3
163029,217605,--,0.608,0.445,-0.650,63.2,57,93.9,3
163038,217604,--,0.606,0.444,-0.652,63.2,57,93.9,3
163041,217613,--,0.606,0.444,-0.652,63.2,57,93.9,3
163045,217602,--,0.606,0.444,-0.652,63.2,57,93.9,3
163046,217595,--,0.606,0.445,-0.651,63.2,57,93.9,3
163060,217598,--,0.607,0.447,-0.648,63.2,57,93.9,3
163052,217593,--,0.607,0.447,-0.649,63.2,57,93.9,3
163074,217609,--,0.607,0.446,-0.652,63.2,57,93.9,3
163074,217604,--,0.607,0.444,-0.653,63.2,57,93.9,3
163074,217608,--,0.607,0.444,-0.653,63.2,57,93.9,3
163083,217610,--,0.606,0.444,-0.653,63.2,57,93.9,3
163077,217596,--,0.606,0.444,-0.653,63.2,57,93.9,3
163087,217608,--,0.606,0.444,-0.653,63.2,57,93.9,3
163099,217612,--,0.605,0.444,-0.653,63.2,57,93.9,3
163098,217604,--,0.605,0.444,-0.653,63.2,57,93.9,3
163100,217615,--,0.605,0.444,-0.653,63.2,57,93.9,3
163099,217625,--,0.605,0.445,-0.652,63.2,57,93.9,3
163112,217619,--,0.605,0.445,-0.652,63.2,57,93.9,3
163118,217610,--,0.605,0.445,-0.652,63.2,57,93.9,3
163108,217606,--,0.605,0.445,-0.652,63.2,57,93.9,3
163097,217601,--,0.606,0.446,-0.651,63.2,57,93.9,3
163115,217609,--,0.607,0.446,-0.649,63.2,57,93.9,3
163106,217600,--,0.608,0.446,-0.649,63.2,57,93.9,3
163111,217612,--,0.607,0.445,-0.652,63.2,57,93.9,3
163118,217608,--,0.606,0.444,-0.654,63.2,57,93.9,3
163121,217603,--,0.606,0.443,-0.655,63.2,57,93.9,3
163127,217607,--,0.606,0.443,-0.655,63.2,57,93.9,3
163130,217606,--,0.606,0.443,-0.655,63.2,57,93.9,3
163137,217617,--,0.606,0.443,-0.656,63.2,57,93.9,3
163149,217604,--,0.606,0.443,-0.656,63.2,57,93.9,3
163150,217600,--,0.606,0.443,-0.656,63.2,57,93.9,3
163152,217611,--,0.606,0.443,-0.656,63.2,57,93.9,3
163162,217610,--,0.607,0.444,-0.653,63.2,57,93.9,3
163177,217612,--,0.607,0.444,-0.653,63.2,57,93.9,3
163187,217624,--,0.607,0.444,-0.653,63.2,57,93.9,3
163203,217627,--,0.610,0.446,-0.650,63.2,57,93.9,3
163200,217634,--,0.610,0.446,-0.650,63.2,57,93.9,3
163209,217632,--,0.610,0.446,-0.650,63.2,57,93.9,3
163221,217641,--,0.610,0.447,-0.649,63.2,57,93.9,3
163220,217634,--,0.608,0.446,-0.650,63.2,57,93.9,3
163208,217629,--,0.606,0.445,-0.651,63.2,57,93.9,3
163200,217625,--,0.606,0.445,-0.651,63.7,60,93.9,3
163169,217603,--,0.606,0.445,-0.654,63.7,60,93.9,3
163135,217572,--,0.608,0.445,-0.654,63.7,60,93.9,3
163085,217545,--,0.608,0.445,-0.654,63.7,60,93.9,3
163025,217521,--,0.609,0.446,-0.652,63.7,60,93.9,3
162970,217481,--,0.609,0.446,-0.652,63.7,60,93.9,3
162911,217448,--,0.609,0.446,-0.652,63.7,60,93.9,3
162861,217420,--,0.609,0.446,-0.652,63.7,60,93.9,3
162827,217387,--,0.608,0.445,-0.651,63.7,60,93.9,3
162800,217382,--,0.608,0.445,-0.651,63.7,60,93.9,3
162781,217363,--,0.608,0.445,-0.651,63.7,60,93.9,3
162775,217365,--,0.606,0.444,-0.653,63.7,60,93.9,3
162768,217360,--,0.606,0.444,-0.653,63.7,60,93.9,3
162768,217356,--,0.606,0.444,-0.653,63.7,60,93.9,3
162774,217358,--,0.606,0.445,-0.654,63.7,60,93.9,3
162780,217351,--,0.607,0.447,-0.652,63.7,60,93.9,3
162781,217369,--,0.608,0.447,-0.649,63.7,60,93.9,3
162787,217361,--,0.608,0.445,-0.650,63.7,60,93.9,3
162792,217361,--,0.606,0.444,-0.654,63.7,60,93.9,3
162785,217361,--,0.606,0.444,-0.654,63.7,60,93.9,3
162781,217340,--,0.606,0.444,-0.654,63.7,60,93.9,3
162777,217353,--,0.605,0.444,-0.656,63.7,60,93.9,3
162780,217352,--,0.605,0.444,-0.656,63.7,60,93.9,3
162778,217346,--,0.605,0.444,-0.656,63.7,60,93.9,3
162779,217355,--,0.606,0.446,-0.653,63.7,60,93.9,3
162798,217348,--,0.606,0.446,-0.653,63.7,60,94.9,3
162803,217356,--,0.606,0.446,-0.653,63.7,60,94.9,3
162810,217357,--,0.606,0.447,-0.650,63.7,60,94.9,3
162827,217362,--,0.606,0.447,-0.650,63.7,60,94.9,3
162824,217361,--,0.606,0.447,-0.650,63.7,60,94.9,3
162827,217363,--,0.606,0.446,-0.651,63.7,60,94.9,3
162818,217366,--,0.606,0.445,-0.654,63.7,60,94.9,3
162816,217351,--,0.606,0.444,-0.654,63.7,60,94.9,3
162799,217347,--,0.606,0.444,-0.654,63.7,60,94.9,3
162793,217322,--,0.607,0.446,-0.653,63.7,60,94.9,3
162792,217314,--,0.607,0.446,-0.653,63.7,60,94.9,3
162778,217322,--,0.608,0.446,-0.652,63.7,60,94.9,3
162778,217315,--,0.608,0.446,-0.652,63.7,60,94.9,3
162784,217321,--,0.608,0.446,-0.652,63.7,60,94.9,3
162782,217317,--,0.607,0.446,-0.651,63.7,60,94.9,3
162770,217317,--,0.607,0.446,-0.651,63.7,60,94.9,3
162787,217320,--,0.607,0.446,-0.651,63.7,60,94.9,3
162787,217324,--,0.607,0.446,-0.651,63.7,60,94.9,3
162799,217328,--,0.607,0.446,-0.651,63.7,60,94.9,3
162809,217335,--,0.607,0.446,-0.651,63.7,60,94.9,3
162820,217337,--,0.607,0.446,-0.651,63.7,60,94.9,3
162826,217349,--,0.606,0.446,-0.652,63.7,60,94.9,3
162842,217346,--,0.606,0.446,-0.652,63.7,60,94.9,3
162850,217357,--,0.606,0.446,-0.653,63.7,60,94.9,3
162856,217353,--,0.606,0.446,-0.654,63.7,60,94.9,3
162872,217360,--,0.606,0.445,-0.653,63.7,60,94.9,3
162876,217364,--,0.607,0.445,-0.652,63.7,60,94.9,3
162882,217366,--,0.608,0.447,-0.652,63.7,60,94.9,3
162887,217364,--,0.608,0.447,-0.652,63.7,60,94.9,3
162893,217373,--,0.608,0.448,-0.652,63.7,60,94.9,3
162902,217370,--,0.608,0.448,-0.652,63.7,60,94.9,3
162904,217380,--,0.608,0.448,-0.652,63.7,60,94.9,3
162915,217387,--,0.608,0.448,-0.652,63.7,60,94.9,3
162909,217380,--,0.607,0.448,-0.652,63.7,60,94.9,3
162905,217373,--,0.607,0.448,-0.652,63.7,60,94.9,3
162920,217367,--,0.607,0.448,-0.652,63.7,60,94.9,3
162927,217362,--,0.606,0.447,-0.653,63.7,60,94.9,3
162922,217366,--,0.606,0.447,-0.653,63.7,60,94.9,3
162929,217368,--,0.606,0.447,-0.653,63.7,60,94.9,3
162930,217381,--,0.605,0.446,-0.652,63.7,60,94.9,3
162934,217392,--,0.606,0.445,-0.653,63.7,60,94.9,3
162940,217389,--,0.605,0.444,-0.654,63.7,60,94.9,3
162945,217406,--,0.606,0.445,-0.653,63.7,60,94.9,3
162936,217400,--,0.608,0.447,-0.651,63.7,60,94.9,3
162945,217395,--,0.607,0.446,-0.650,63.7,60,94.9,3
162942,217391,--,0.607,0.446,-0.650,63.7,60,94.9,3
162950,217381,--,0.607,0.446,-0.650,63.7,60,94.9,3
162959,217388,--,0.607,0.446,-0.650,63.7,60,94.9,3
162969,217402,--,0.606,0.445,-0.654,63.7,60,94.9,3
162973,217391,--,0.606,0.445,-0.654,63.7,60,94.9,3
162975,217400,--,0.606,0.445,-0.654,63.7,60,94.9,3
162985,217402,--,0.607,0.445,-0.658,63.7,60,94.9,3
162986,217411,--,0.607,0.445,-0.658,63.7,60,94.9,3
162990,217399,--,0.607,0.445,-0.658,63.7,60,94.9,3
163015,217410,--,0.607,0.446,-0.655,63.7,60,94.9,3
163019,217418,--,0.607,0.446,-0.655,63.7,60,94.9,3
163027,217433,--,0.607,0.446,-0.655,63.7,60,94.9,3
163048,217448,--,0.606,0.445,-0.652,63.7,60,94.9,3
163041,217452,--,0.606,0.444,-0.652,63.7,60,94.9,3
163057,217457,--,0.606,0.446,-0.652,63.7,60,94.9,3
163062,217451,--,0.606,0.447,-0.651,63.7,60,94.9,3
163073,217458,--,0.606,0.447,-0.651,63.7,60,94.9,3
163062,217465,--,0.606,0.447,-0.651,63.7,60,94.9,3
163058,217456,--,0.606,0.446,-0.653,63.7,60,94.9,3
163040,217430,--,0.606,0.446,-0.653,63.7,60,94.9,3
162999,217410,--,0.606,0.446,-0.653,63.7,60,94.9,3
162954,217379,--,0.606,0.446,-0.656,63.7,60,94.9,3
162905,217351,--,0.606,0.446,-0.656,63.7,60,94.9,3
162838,217313,--,0.606,0.446,-0.656,63.7,60,94.9,3
162777,217267,--,0.606,0.445,-0.656,63.7,60,94.9,3
162730,217243,--,0.606,0.445,-0.656,63.7,60,94.9,3
162690,217216,--,0.606,0.445,-0.656,63.7,60,94.9,3
162666,217205,--,0.606,0.445,-0.656,63.7,60,94.9,3
162650,217200,--,0.606,0.445,-0.653,63.7,60,94.9,3
162641,217197,--,0.606,0.446,-0.652,63.7,60,94.9,3
162637,217203,--,0.606,0.447,-0.652,64.4,65,94.9,3
162643,217199,--,0.606,0.448,-0.651,64.4,65,94.9,3
162642,217187,--,0.605,0.447,-0.651,64.4,65,94.9,3
162644,217193,--,0.605,0.445,-0.654,64.4,65,94.9,3
162653,217192,--,0.605,0.445,-0.654,64.4,65,94.9,3
162661,217186,--,0.607,0.445,-0.654,64.4,65,94.9,3
162672,217199,--,0.607,0.445,-0.654,64.4,65,94.9,3
162671,217195,--,0.607,0.445,-0.654,64.4,65,94.9,3
162658,217202,--,0.607,0.446,-0.652,64.4,65,94.9,3
162654,217192,--,0.607,0.446,-0.652,64.4,65,94.9,3
162672,217196,--,0.607,0.446,-0.652,64.4,65,94.9,3
162664,217196,--,0.607,0.447,-0.651,64.4,65,94.9,3
162671,217202,--,0.607,0.447,-0.651,64.4,65,94.9,3
162681,217219,--,0.607,0.447,-0.651,64.4,65,95.3,3
162686,217206,--,0.607,0.447,-0.651,64.4,65,95.3,3
162692,217208,--,0.607,0.448,-0.652,64.4,65,95.3,3
162691,217206,--,0.606,0.448,-0.652,64.4,65,95.3,3
162705,217204,--,0.605,0.447,-0.654,64.4,65,95.3,3
162700,217201,--,0.605,0.445,-0.655,64.4,65,95.3,3
162702,217203,--,0.607,0.444,-0.654,64.4,65,95.3,3
162701,217209,--,0.607,0.444,-0.654,64.4,65,95.3,3
162689,217205,--,0.608,0.445,-0.653,64.4,65,95.3,3
162681,217185,--,0.608,0.445,-0.653,64.4,65,95.3,3
162669,217177,--,0.608,0.445,-0.653,64.4,65,95.3,3
162670,217184,--,0.608,0.447,-0.653,64.4,65,95.3,3
162661,217172,--,0.608,0.447,-0.653,64.4,65,95.3,3
162667,217169,--,0.608,0.447,-0.653,64.4,65,95.3,3
162674,217170,--,0.608,0.447,-0.653,64.4,65,95.3,3
162674,217173,--,0.607,0.447,-0.653,64.4,65,95.3,3
162682,217178,--,0.607,0.447,-0.653,64.4,65,95.3,3
162692,217187,--,0.607,0.447,-0.653,64.4,65,95.3,3
162694,217182,--,0.606,0.446,-0.652,64.4,65,95.3,3
162699,217192,--,0.606,0.446,-0.652,64.4,65,95.3,3
162715,217193,--,0.605,0.445,-0.654,64.4,65,95.3,3
162719,217203,--,0.605,0.446,-0.655,64.4,65,95.3,3
162737,217217,--,0.605,0.447,-0.654,64.4,65,95.3,3
162753,217214,--,0.606,0.446,-0.653,64.4,65,95.3,3
162757,217223,--,0.607,0.445,-0.655,64.4,65,95.3,3
162766,217228,--,0.607,0.445,-0.655,64.4,65,95.3,3
162772,217235,--,0.607,0.445,-0.656,64.4,65,95.3,3
162788,217244,--,0.607,0.445,-0.656,64.4,65,95.3,3
162792,217239,--,0.607,0.445,-0.656,64.4,65,95.3,3
162797,217258,--,0.607,0.445,-0.656,64.4,65,95.3,3
162793,217258,--,0.605,0.446,-0.656,64.4,65,95.3,3
162813,217258,--,0.605,0.446,-0.656,64.4,65,95.3,3
162810,217256,--,0.605,0.446,-0.656,64.4,65,95.3,3
162813,217255,--,0.605,0.446,-0.656,64.4,65,95.3,3
162816,217257,--,0.605,0.446,-0.656,64.4,65,95.3,3
162829,217251,--,0.605,0.446,-0.656,64.4,65,95.3,3
162827,217256,--,0.605,0.446,-0.655,64.4,65,95.3,3
162839,217258,--,0.606,0.447,-0.653,64.4,65,95.3,3
162845,217275,--,0.607,0.446,-0.651,64.4,65,95.3,3
162841,217261,--,0.606,0.444,-0.652,64.4,65,95.3,3
162849,217261,--,0.605,0.443,-0.656,64.4,65,95.3,3
162857,217274,--,0.605,0.443,-0.658,64.4,65,95.3,3
162864,217268,--,0.605,0.443,-0.658,64.4,65,95.3,3
162867,217274,--,0.605,0.443,-0.658,64.4,65,95.3,3
162878,217278,--,0.605,0.443,-0.658,64.4,65,95.3,3
162876,217277,--,0.606,0.445,-0.655,64.4,65,95.3,3
162870,217276,--,0.606,0.445,-0.655,64.4,65,95.3,3
162886,217271,--,0.606,0.445,-0.655,64.4,65,95.3,3
162894,217282,--,0.606,0.446,-0.654,64.4,65,95.3,3
162905,217288,--,0.606,0.446,-0.654,64.4,65,95.3,3
162904,217297,--,0.606,0.446,-0.654,64.4,65,95.3,3
162913,217305,--,0.606,0.446,-0.654,64.4,65,95.3,3
162920,217308,--,0.606,0.446,-0.655,64.4,65,95.3,3
162920,217308,--,0.606,0.446,-0.655,64.4,65,95.3,3
162927,217302,--,0.606,0.446,-0.655,64.4,65,95.3,3
162937,217315,--,0.606,0.445,-0.656,64.4,65,95.3,3
162949,217316,--,0.605,0.445,-0.656,64.4,65,95.3,3
162960,217316,--,0.606,0.445,-0.656,64.4,65,95.3,3
162978,217330,--,0.605,0.444,-0.655,64.4,65,95.3,3
162984,217324,--,0.605,0.444,-0.655,64.4,65,95.3,3
162988,217325,--,0.603,0.444,-0.655,64.4,65,95.3,3
162995,217334,--,0.603,0.444,-0.655,64.4,65,95.3,3
163003,217332,--,0.603,0.444,-0.655,64.4,65,95.3,3
163019,217356,--,0.604,0.445,-0.655,64.4,65,95.3,3
163029,217353,--,0.604,0.445,-0.655,64.4,65,95.3,3
163024,217360,--,0.604,0.445,-0.655,64.4,65,95.3,3
163033,217355,--,0.604,0.445,-0.655,64.4,65,95.3,3
163011,217349,--,0.606,0.447,-0.652,64.4,65,95.3,3
162972,217325,--,0.606,0.447,-0.652,64.4,65,95.3,3
162930,217304,--,0.606,0.447,-0.652,64.4,65,95.3,3
162884,217271,--,0.608,0.447,-0.652,64.4,65,95.3,3
162815,217239,--,0.608,0.446,-0.653,64.4,65,95.3,3
162773,217216,--,0.606,0.444,-0.655,64.4,65,95.3,3
162727,217196,--,0.605,0.444,-0.656,64.4,65,95.3,3
162671,217152,--,0.605,0.445,-0.655,64.4,65,95.3,3
162634,217123,--,0.606,0.446,-0.655,64.4,65,95.3,3
162618,217112,--,0.606,0.446,-0.655,64.4,65,95.3,3
162610,217110,--,0.606,0.446,-0.655,64.4,65,95.3,3
162601,217112,--,0.607,0.446,-0.653,64.4,65,95.3,3
162607,217104,--,0.607,0.446,-0.653,64.4,65,95.3,3
162611,217112,--,0.607,0.446,-0.653,64.4,65,95.3,3
162612,217117,--,0.607,0.446,-0.653,64.4,65,95.3,3
162617,217104,--,0.606,0.446,-0.653,64.4,65,95.3,3
162625,217114,--,0.606,0.446,-0.653,64.4,65,95.3,3
162627,217125,--,0.606,0.446,-0.653,64.4,65,95.3,3
162633,217114,--,0.606,0.445,-0.654,64.4,65,95.3,3
162625,217110,--,0.606,0.445,-0.654,64.4,65,95.3,3
162632,217123,--,0.606,0.445,-0.654,68.6,98,95.3,3
162633,217114,--,0.606,0.445,-0.656,68.6,98,95.3,3
162631,217109,--,0.605,0.444,-0.657,68.6,98,95.3,3
162629,217108,--,0.605,0.445,-0.657,68.6,98,95.3,3
162638,217120,--,0.605,0.446,-0.655,68.6,98,95.5,3
162653,217124,--,0.606,0.446,-0.654,68.6,98,95.5,3
162666,217118,--,0.606,0.446,-0.656,68.6,98,95.5,3
162667,217134,--,0.606,0.446,-0.656,68.6,98,95.5,3
162671,217142,--,0.606,0.446,-0.656,68.6,98,95.5,3
162679,217146,--,0.606,0.444,-0.657,68.6,98,95.5,3
162671,217140,--,0.606,0.444,-0.657,68.6,98,95.5,3
162664,217133,--,0.606,0.444,-0.657,68.6,98,95.5,3
162659,217124,--,0.606,0.444,-0.657,68.6,98,95.5,3
162650,217120,--,0.605,0.444,-0.658,68.6,98,95.5,3
162656,217110,--,0.605,0.444,-0.658,68.6,98,95.5,3
162649,217105,--,0.605,0.444,-0.658,68.6,98,95.5,3
162650,217101,--,0.605,0.444,-0.658,68.6,98,95.5,3
162645,217099,--,0.605,0.444,-0.658,68.6,98,95.5,3
162644,217098,--,0.605,0.443,-0.656,68.6,98,95.5,3
162644,217105,--,0.606,0.444,-0.655,68.6,98,95.5,3
162657,217107,--,0.607,0.445,-0.654,68.6,98,95.5,3
162653,217115,--,0.606,0.444,-0.655,68.6,98,95.5,3
162671,217106,--,0.606,0.443,-0.656,68.6,98,95.5,3
162673,217108,--,0.606,0.443,-0.656,68.6,98,95.5,3
162686,217118,--,0.606,0.443,-0.656,68.6,98,95.5,3
162697,217122,--,0.605,0.442,-0.658,68.6,98,95.5,3
162707,217135,--,0.605,0.442,-0.658,68.6,98,95.5,3
162714,217143,--,0.605,0.442,-0.658,68.6,98,95.5,3
162728,217138,--,0.605,0.443,-0.658,68.6,98,95.5,3
162737,217155,--,0.605,0.443,-0.658,68.6,98,95.5,3
162753,217158,--,0.605,0.443,-0.658,68.6,98,95.5,3
162761,217157,--,0.605,0.443,-0.658,68.6,98,95.5,3
162760,217168,--,0.606,0.444,-0.657,68.6,98,95.5,3
162766,217161,--,0.606,0.444,-0.657,68.6,98,95.5,3
162774,217165,--,0.606,0.444,-0.657,68.6,98,95.5,3
162783,217162,--,0.606,0.446,-0.657,68.6,98,95.5,3
162781,217160,--,0.605,0.445,-0.656,68.6,98,95.5,3
162784,217167,--,0.604,0.442,-0.658,68.6,98,95.5,3
162788,217167,--,0.604,0.442,-0.659,68.6,98,95.5,3
162792,217165,--,0.606,0.444,-0.656,68.6,98,95.5,3
162812,217166,--,0.608,0.445,-0.654,68.6,98,95.5,3
162812,217161,--,0.608,0.445,-0.654,68.6,98,95.5,3
162813,217176,--,0.608,0.445,-0.654,68.6,98,95.5,3
162815,217162,--,0.608,0.445,-0.655,68.6,98,95.5,3
162818,217168,--,0.608,0.445,-0.655,68.6,98,95.5,3
162830,217174,--,0.608,0.445,-0.655,68.6,98,95.5,3
162814,217179,--,0.606,0.444,-0.657,68.6,98,95.5,3
162839,217178,--,0.606,0.444,-0.657,68.6,98,95.5,3
162829,217169,--,0.606,0.444,-0.657,68.6,98,95.5,3
162833,217178,--,0.606,0.444,-0.657,68.6,98,95.5,3
162850,217179,--,0.604,0.442,-0.659,68.6,98,95.5,3
162852,217192,--,0.604,0.442,-0.659,68.6,98,95.5,3
162856,217187,--,0.604,0.442,-0.659,68.6,98,95.5,3
162864,217198,--,0.605,0.444,-0.657,68.6,98,95.5,3
162871,217210,--,0.607,0.445,-0.655,68.6,98,95.5,3
162875,217207,--,0.607,0.444,-0.655,68.6,98,95.5,3
162879,217213,--,0.606,0.443,-0.657,68.6,98,95.5,3
162897,217218,--,0.606,0.443,-0.657,68.6,98,95.5,3
162898,217213,--,0.606,0.444,-0.658,68.6,98,95.5,3
162909,217222,--,0.606,0.444,-0.658,68.6,98,95.5,3
162916,217227,--,0.606,0.444,-0.658,68.6,98,95.5,3
162927,217225,--,0.606,0.444,-0.658,68.6,98,95.5,3
162933,217237,--,0.605,0.444,-0.658,68.6,98,95.5,3
162944,217240,--,0.605,0.444,-0.658,68.6,98,95.5,3
162942,217245,--,0.605,0.444,-0.658,68.6,98,95.5,3
162955,217255,--,0.604,0.444,-0.656,68.6,98,95.5,3
162960,217250,--,0.604,0.444,-0.656,68.6,98,95.5,3
162979,217269,--,0.604,0.444,-0.656,68.6,98,95.5,3
162976,217271,--,0.605,0.444,-0.656,68.6,98,95.5,3
162996,217269,--,0.606,0.445,-0.656,68.6,98,95.5,3
162996,217273,--,0.606,0.446,-0.655,68.6,98,95.5,3
162996,217276,--,0.605,0.446,-0.656,68.6,98,95.5,3
162989,217260,--,0.604,0.445,-0.659,68.6,98,95.5,3
162977,217247,--,0.605,0.443,-0.660,68.6,98,95.5,3
162936,217231,--,0.605,0.443,-0.660,68.6,98,95.5,3
162896,217204,--,0.605,0.443,-0.660,68.6,98,95.5,3
162841,217169,--,0.605,0.443,-0.660,68.6,98,95.5,3
162788,217135,--,0.606,0.443,-0.658,68.6,98,95.5,3
162732,217106,--,0.606,0.443,-0.658,68.6,98,95.5,3
162684,217076,--,0.606,0.443,-0.658,68.6,98,95.5,3
162640,217065,--,0.606,0.442,-0.656,68.6,98,95.5,3
162612,217036,--,0.606,0.442,-0.656,68.6,98,95.5,3
162596,217027,--,0.606,0.442,-0.656,68.6,98,95.5,3
162587,217016,--,0.605,0.442,-0.656,68.6,98,95.5,3
162575,217012,--,0.605,0.442,-0.656,68.6,98,95.5,3
162590,217019,--,0.605,0.442,-0.656,68.6,98,95.5,3
162599,217033,--,0.605,0.443,-0.657,68.6,98,95.5,3
162609,217039,--,0.604,0.445,-0.657,68.6,98,95.5,3
162614,217038,--,0.604,0.445,-0.656,68.6,98,95.5,3
162624,217045,--,0.606,0.445,-0.656,68.6,98,95.5,3
162629,217049,--,0.607,0.445,-0.656,68.6,98,95.5,3
162620,217025,--,0.607,0.445,-0.656,68.6,98,95.5,3
162634,217040,--,0.607,0.445,-0.655,68.6,98,95.5,3
162625,217038,--,0.607,0.445,-0.655,68.6,98,95.5,3
162632,217033,--,0.607,0.445,-0.655,68.6,98,95.5,3
162631,217037,--,0.605,0.445,-0.656,68.6,98,95.5,3
162643,217034,--,0.605,0.445,-0.656,68.6,98,95.5,3
162653,217037,--,0.605,0.445,-0.656,68.6,98,95.9,3
162657,217039,--,0.605,0.445,-0.656,68.6,98,95.9,3
162679,217043,--,0.604,0.445,-0.658,68.6,98,95.9,3
162670,217042,--,0.604,0.445,-0.658,68.3,98,95.9,3
162674,217046,--,0.604,0.445,-0.658,68.3,98,95.9,3
162676,217046,--,0.604,0.445,-0.658,68.3,98,95.9,3
162662,217040,--,0.604,0.445,-0.659,68.3,98,95.9,3
162664,217037,--,0.605,0.444,-0.659,68.3,98,95.9,3
162659,217045,--,0.605,0.444,-0.657,68.3,98,95.9,3
162657,217033,--,0.605,0.445,-0.657,68.3,98,95.9,3
162654,217040,--,0.605,0.445,-0.659,68.3,98,95.9,3
162647,217028,--,0.605,0.445,-0.659,68.3,98,95.9,3
162637,217010,--,0.605,0.445,-0.659,68.3,98,95.9,3
162641,217014,--,0.605,0.445,-0.660,68.3,98,95.9,3
162647,217024,--,0.605,0.445,-0.660,68.3,98,95.9,3
162661,217027,--,0.605,0.445,-0.660,68.3,98,95.9,3
162662,217032,--,0.605,0.445,-0.660,68.3,98,95.9,3
162669,217034,--,0.604,0.444,-0.659,68.3,98,95.9,3
162681,217036,--,0.604,0.444,-0.659,68.3,98,95.9,3
162689,217039,--,0.604,0.444,-0.659,68.3,98,95.9,3
162702,217050,--,0.604,0.445,-0.657,68.3,98,95.9,3
162714,217048,--,0.604,0.445,-0.657,68.3,98,95.9,3
162721,217042,--,0.604,0.445,-0.657,68.3,98,95.9,3
162730,217062,--,0.605,0.446,-0.655,68.3,98,95.9,3
162731,217073,--,0.606,0.446,-0.655,68.3,98,95.9,3
162752,217068,--,0.606,0.444,-0.657,68.3,98,95.9,3
162766,217081,--,0.605,0.444,-0.659,68.3,98,95.9,3
162770,217077,--,0.605,0.444,-0.658,68.3,98,95.9,3
162770,217076,--,0.604,0.445,-0.656,68.3,98,95.9,3
162783,217085,--,0.604,0.445,-0.656,68.3,98,95.9,3
162791,217073,--,0.604,0.445,-0.656,68.3,98,95.9,3
162800,217079,--,0.604,0.445,-0.656,68.3,98,95.9,3
162809,217085,--,0.604,0.446,-0.658,68.3,98,95.9,3
162814,217087,--,0.604,0.446,-0.658,68.3,98,95.9,3
162816,217100,--,0.604,0.446,-0.658,68.3,98,95.9,3
162820,217102,--,0.603,0.446,-0.660,68.3,98,95.9,3
162820,217093,--,0.603,0.446,-0.660,68.3,98,95.9,3
162826,217102,--,0.603,0.446,-0.660,68.3,98,95.9,3
162824,217093,--,0.604,0.446,-0.660,68.3,98,95.9,3
162834,217102,--,0.604,0.446,-0.660,68.3,98,95.9,3
162839,217106,--,0.605,0.447,-0.658,68.3,98,95.9,3
162855,217113,--,0.605,0.446,-0.657,68.3,98,95.9,3
162848,217120,--,0.604,0.445,-0.656,68.3,98,95.9,3
162865,217127,--,0.604,0.444,-0.658,68.3,98,95.9,3
162867,217130,--,0.604,0.444,-0.661,68.3,98,95.9,3
162875,217133,--,0.604,0.444,-0.661,68.3,98,95.9,3
162880,217126,--,0.604,0.444,-0.661,68.3,98,95.9,3
162883,217130,--,0.604,0.445,-0.660,68.3,98,95.9,3
162890,217133,--,0.604,0.445,-0.660,68.3,98,95.9,3
162900,217144,--,0.604,0.445,-0.660,68.3,98,95.9,3
162912,217142,--,0.604,0.447,-0.658,68.3,98,95.9,3
162909,217145,--,0.604,0.447,-0.658,68.3,98,95.9,3
162922,217146,--,0.604,0.447,-0.658,68.3,98,95.9,3
162927,217151,--,0.604,0.447,-0.658,68.3,98,95.9,3
162936,217158,--,0.604,0.447,-0.658,68.3,98,95.9,3
162936,217159,--,0.604,0.447,-0.658,68.3,98,95.9,3
162954,217176,--,0.604,0.447,-0.658,68.3,98,95.9,3
162964,217165,--,0.605,0.445,-0.658,68.3,98,95.9,3
162973,217184,--,0.604,0.444,-0.659,68.3,98,95.9,3
162980,217190,--,0.604,0.443,-0.660,68.3,98,95.9,3
162987,217191,--,0.604,0.444,-0.660,68.3,98,95.9,3
163000,217186,--,0.605,0.445,-0.657,68.3,98,95.9,3
163011,217201,--,0.605,0.446,-0.655,68.3,98,95.9,3
163022,217207,--,0.605,0.446,-0.655,68.3,98,95.9,3
163042,217213,--,0.605,0.446,-0.655,68.3,98,95.9,3
163043,217213,--,0.605,0.447,-0.656,68.3,98,95.9,3
163058,217227,--,0.605,0.447,-0.656,68.3,98,95.9,3
163064,217222,--,0.605,0.447,-0.656,68.3,98,95.9,3
163061,217227,--,0.605,0.447,-0.656,68.3,98,95.9,3
163049,217219,--,0.605,0.447,-0.656,68.3,98,95.9,3
163022,217205,--,0.605,0.447,-0.656,68.3,98,95.9,3
162989,217178,--,0.605,0.447,-0.656,68.3,98,95.9,3
162933,217148,--,0.604,0.446,-0.656,68.3,98,95.9,3
162882,217117,--,0.604,0.446,-0.656,68.3,98,95.9,3
162819,217076,--,0.604,0.444,-0.658,68.3,98,95.9,3
162763,217051,--,0.604,0.443,-0.661,68.3,98,95.9,3
162725,217025,--,0.604,0.444,-0.660,68.3,98,95.9,3
162677,216997,--,0.606,0.445,-0.658,68.3,98,95.9,3
162647,216979,--,0.606,0.445,-0.656,68.3,98,95.9,3
162634,216972,--,0.606,0.445,-0.656,68.3,98,95.9,3
162623,216971,--,0.605,0.445,-0.656,68.3,98,95.9,3
162628,216960,--,0.605,0.445,-0.656,68.3,98,95.9,3
162627,216962,--,0.605,0.445,-0.656,68.3,98,95.9,3
162623,216969,--,0.604,0.446,-0.658,68.3,98,95.9,3
162628,216966,--,0.604,0.446,-0.658,68.3,98,95.9,3
162642,216970,--,0.604,0.446,-0.658,68.3,98,95.9,3
162650,216983,--,0.604,0.446,-0.658,68.3,98,95.9,3
162646,216981,--,0.603,0.445,-0.659,68.3,98,95.9,3
162646,216977,--,0.603,0.445,-0.659,68.3,98,95.9,3
162655,216967,--,0.603,0.445,-0.659,68.3,98,95.9,3
162634,216965,--,0.604,0.445,-0.659,68.3,98,95.9,3
162639,216958,--,0.605,0.446,-0.658,68.3,98,95.9,3
162645,216964,--,0.605,0.446,-0.657,68.3,98,95.9,3
162648,216962,--,0.605,0.446,-0.656,68.3,98,95.9,3
162661,216981,--,0.604,0.446,-0.657,68.3,98,96.0,3
162658,216976,--,0.603,0.445,-0.660,68.3,98,96.0,3
162669,216976,--,0.603,0.445,-0.660,68.3,98,96.0,3
162683,216976,--,0.603,0.445,-0.660,68.3,98,96.0,3
162680,216972,--,0.603,0.445,-0.661,68.3,98,96.0,3
162672,216978,--,0.603,0.445,-0.661,68.3,98,96.0,3
162681,216973,--,0.603,0.445,-0.661,68.3,98,96.0,3
162672,216964,--,0.604,0.445,-0.659,68.3,98,96.0,3
162666,216957,--,0.604,0.445,-0.659,68.3,98,96.0,3
162662,216962,--,0.604,0.445,-0.659,68.1,98,96.0,3
162669,216957,--,0.606,0.446,-0.657,68.1,98,96.0,3
162657,216954,--,0.606,0.446,-0.657,68.1,98,96.0,3
162661,216961,--,0.606,0.446,-0.657,68.1,98,96.0,3
162650,216956,--,0.606,0.446,-0.657,68.1,98,96.0,3
162653,216956,--,0.604,0.445,-0.657,68.1,98,96.0,3
162648,216954,--,0.604,0.446,-0.658,68.1,98,96.0,3
162654,216963,--,0.604,0.446,-0.659,68.1,98,96.0,3
162662,216958,--,0.604,0.446,-0.658,68.1,98,96.0,3
162663,216954,--,0.604,0.446,-0.658,68.1,98,96.0,3
162681,216957,--,0.604,0.446,-0.658,68.1,98,96.0,3
162679,216968,--,0.604,0.446,-0.657,68.1,98,96.0,3
162687,216957,--,0.604,0.446,-0.657,68.1,98,96.0,3
162706,216982,--,0.604,0.446,-0.657,68.1,98,96.0,3
162715,216969,--,0.604,0.446,-0.659,68.1,98,96.0,3
162720,216964,--,0.604,0.446,-0.659,68.1,98,96.0,3
162727,216973,--,0.604,0.446,-0.659,68.1,98,96.0,3
162740,216973,--,0.604,0.445,-0.660,68.1,98,96.0,3
162743,216986,--,0.604,0.445,-0.660,68.1,98,96.0,3
162750,216988,--,0.604,0.445,-0.660,68.1,98,96.0,3
162757,216997,--,0.604,0.445,-0.660,68.1,98,96.0,3
162764,217001,--,0.604,0.445,-0.661,68.1,98,96.0,3
162769,217011,--,0.604,0.447,-0.659,68.1,98,96.0,3
162784,217010,--,0.605,0.448,-0.657,68.1,98,96.0,3
162785,217013,--,0.605,0.447,-0.659,68.1,98,96.0,3
162787,217016,--,0.605,0.446,-0.660,68.1,98,96.0,3
162799,217030,--,0.605,0.446,-0.659,68.1,98,96.0,3
162792,217019,--,0.605,0.446,-0.659,68.1,98,96.0,3
162800,217021,--,0.605,0.446,-0.659,68.1,98,96.0,3
162812,217016,--,0.604,0.445,-0.658,68.1,98,96.0,3
162809,217020,--,0.604,0.445,-0.658,68.1,98,96.0,3
162820,217028,--,0.604,0.445,-0.658,68.1,98,96.0,3
162835,217028,--,0.604,0.445,-0.658,68.1,98,96.0,3
162836,217040,--,0.604,0.445,-0.658,68.1,98,96.0,3
162832,217045,--,0.604,0.445,-0.658,68.1,98,96.0,3
162847,217049,--,0.604,0.445,-0.658,68.1,98,96.0,3
162850,217050,--,0.605,0.445,-0.657,68.1,98,96.0,3
162855,217052,--,0.605,0.445,-0.657,68.1,98,96.0,3
162850,217047,--,0.605,0.445,-0.657,68.1,98,96.0,3
162862,217053,--,0.605,0.446,-0.658,68.1,98,96.0,3
162870,217058,--,0.606,0.447,-0.656,68.1,98,96.0,3
162885,217064,--,0.604,0.447,-0.655,68.1,98,96.0,3
162894,217070,--,0.604,0.446,-0.658,68.1,98,96.0,3
162897,217084,--,0.603,0.445,-0.660,68.1,98,96.0,3
162912,217084,--,0.604,0.446,-0.659,68.1,98,96.0,3
162908,217092,--,0.604,0.446,-0.659,68.1,98,96.0,3
162922,217093,--,0.604,0.446,-0.659,68.1,98,96.0,3
162925,217094,--,0.605,0.447,-0.657,68.1,98,96.0,3
162935,217089,--,0.605,0.447,-0.657,68.1,98,96.0,3
162936,217097,--,0.605,0.447,-0.657,68.1,98,96.0,3
162952,217102,--,0.605,0.447,-0.657,68.1,98,96.0,3
162956,217104,--,0.606,0.448,-0.656,68.1,98,96.0,3
162968,217125,--,0.606,0.448,-0.656,68.1,98,96.0,3
162986,217133,--,0.606,0.448,-0.656,68.1,98,96.0,3
162990,217125,--,0.606,0.448,-0.655,68.1,98,96.0,3
162993,217121,--,0.606,0.448,-0.655,68.1,98,96.0,3
163006,217136,--,0.604,0.446,-0.657,68.1,98,96.0,3
163013,217130,--,0.602,0.446,-0.659,68.1,98,96.0,3
163024,217147,--,0.603,0.447,-0.657,68.1,98,96.0,3
163025,217128,--,0.605,0.448,-0.655,68.1,98,96.0,3
163023,217135,--,0.606,0.447,-0.655,68.1,98,96.0,3
163017,217137,--,0.606,0.447,-0.655,68.1,98,96.0,3
162992,217115,--,0.606,0.447,-0.655,68.1,98,96.0,3
162953,217099,--,0.605,0.446,-0.657,68.1,98,96.0,3
162902,217081,--,0.605,0.446,-0.657,68.1,98,96.0,3
162832,217044,--,0.605,0.446,-0.657,68.1,98,96.0,3
162790,217001,--,0.604,0.445,-0.659,68.1,98,96.0,3
162729,216972,--,0.604,0.445,-0.659,68.1,98,96.0,3
162675,216937,--,0.604,0.445,-0.659,68.1,98,96.0,3
162638,216918,--,0.604,0.445,-0.659,68.1,98,96.0,3
162618,216910,--,0.604,0.445,-0.659,68.1,98,96.0,3
162585,216894,--,0.604,0.445,-0.659,68.1,98,96.0,3
162583,216894,--,0.603,0.446,-0.659,68.1,98,96.0,3
162571,216875,--,0.603,0.447,-0.658,68.1,98,96.0,3
162579,216873,--,0.604,0.447,-0.656,68.1,98,96.0,3
162582,216876,--,0.604,0.447,-0.655,68.1,98,96.0,3
162586,216864,--,0.605,0.447,-0.656,68.1,98,96.0,3
162599,216876,--,0.605,0.446,-0.656,68.1,98,96.0,3
162602,216891,--,0.605,0.446,-0.656,68.1,98,96.0,3
162599,216890,--,0.605,0.446,-0.656,68.1,98,96.0,3
162591,216881,--,0.605,0.446,-0.656,68.1,98,96.0,3
162600,216877,--,0.605,0.446,-0.657,68.1,98,96.0,3
162598,216883,--,0.605,0.446,-0.657,68.1,98,96.0,3
162589,216872,--,0.605,0.446,-0.657,68.1,98,96.0,3
162589,216860,--,0.605,0.446,-0.658,68.1,98,96.0,3
162581,216864,--,0.605,0.446,-0.658,68.1,98,96.0,3
162598,216861,--,0.605,0.446,-0.658,68.1,98,96.1,3
162602,216867,--,0.604,0.447,-0.655,68.1,98,96.1,3
162606,216872,--,0.604,0.447,-0.655,68.1,98,96.1,3
162619,216862,--,0.604,0.447,-0.655,68.1,98,96.1,3
162624,216871,--,0.604,0.448,-0.654,68.1,98,96.1,3
162633,216885,--,0.605,0.448,-0.656,68.1,98,96.1,3
162629,216889,--,0.604,0.446,-0.657,68.1,98,96.1,3
162637,216881,--,0.604,0.444,-0.659,68.1,98,96.1,3
162612,216874,--,0.604,0.444,-0.660,68.1,98,96.1,3
162609,216866,--,0.604,0.444,-0.660,68.1,98,96.1,3
162614,216863,--,0.604,0.445,-0.658,68.1,98,96.1,3
162601,216856,--,0.604,0.445,-0.658,68.1,98,96.1,3
162594,216839,--,0.604,0.445,-0.658,68.1,98,96.1,3
162602,216852,--,0.605,0.447,-0.657,68.1,98,96.1,3
162596,216850,--,0.605,0.447,-0.657,67.9,97,96.1,3
162604,216848,--,0.606,0.447,-0.656,67.9,97,96.1,3
162607,216853,--,0.606,0.447,-0.656,67.9,97,96.1,3
162612,216861,--,0.606,0.447,-0.656,67.9,97,96.1,3
162632,216868,--,0.606,0.447,-0.656,67.9,97,96.1,3
162635,216867,--,0.605,0.446,-0.657,67.9,97,96.1,3
162657,216873,--,0.605,0.446,-0.657,67.9,97,96.1,3
162656,216885,--,0.604,0.444,-0.660,67.9,97,96.1,3
162671,216879,--,0.603,0.443,-0.660,67.9,97,96.1,3
162687,216897,--,0.604,0.444,-0.658,67.9,97,96.1,3
162696,216897,--,0.605,0.445,-0.658,67.9,97,96.1,3
162706,216910,--,0.605,0.445,-0.658,67.9,97,96.1,3
162711,216910,--,0.605,0.445,-0.658,67.9,97,96.1,3
162723,216918,--,0.605,0.445,-0.658,67.9,97,96.1,3
162725,216917,--,0.606,0.445,-0.658,67.9,97,96.1,3
162740,216938,--,0.606,0.445,-0.658,67.9,97,96.1,3
162743,216930,--,0.606,0.445,-0.658,67.9,97,96.1,3
162753,216916,--,0.606,0.445,-0.658,67.9,97,96.1,3
162754,216931,--,0.605,0.446,-0.657,67.9,97,96.1,3
162759,216930,--,0.605,0.446,-0.657,67.9,97,96.1,3
162764,216938,--,0.605,0.446,-0.657,67.9,97,96.1,3
162773,216941,--,0.604,0.446,-0.656,67.9,97,96.1,3
162769,216935,--,0.604,0.446,-0.656,67.9,97,96.1,3
162779,216934,--,0.604,0.446,-0.656,67.9,97,96.1,3
162784,216931,--,0.604,0.445,-0.659,67.9,97,96.1,3
162790,216936,--,0.603,0.443,-0.660,67.9,97,96.1,3
162786,216933,--,0.604,0.443,-0.659,67.9,97,96.1,3
162790,216936,--,0.604,0.444,-0.658,67.9,97,96.1,3
162803,216945,--,0.604,0.443,-0.657,67.9,97,96.1,3
162805,216952,--,0.605,0.444,-0.657,67.9,97,96.1,3
162810,216957,--,0.605,0.444,-0.657,67.9,97,96.1,3
162834,216954,--,0.605,0.444,-0.657,67.9,97,96.1,3
162841,216971,--,0.605,0.444,-0.657,67.9,97,96.1,3
162838,216979,--,0.605,0.444,-0.657,67.9,97,96.1,3
162843,216972,--,0.605,0.444,-0.657,67.9,97,96.1,3
162849,216972,--,0.605,0.444,-0.657,67.9,97,96.1,3
162847,216956,--,0.605,0.444,-0.656,67.9,97,96.1,3
162863,216953,--,0.605,0.444,-0.656,67.9,97,96.1,3
162872,216964,--,0.605,0.444,-0.656,67.9,97,96.1,3
162869,216967,--,0.604,0.445,-0.656,67.9,97,96.1,3
162888,216968,--,0.604,0.445,-0.656,67.9,97,96.1,3
162898,216976,--,0.604,0.445,-0.656,67.9,97,96.1,3
162912,216982,--,0.604,0.444,-0.657,67.9,97,96.1,3
162914,216988,--,0.604,0.443,-0.659,67.9,97,96.1,3
162929,216994,--,0.604,0.443,-0.658,67.9,97,96.1,3
162926,217003,--,0.605,0.443,-0.658,67.9,97,96.1,3
162953,217008,--,0.605,0.443,-0.658,67.9,97,96.1,3
162961,217016,--,0.605,0.443,-0.658,67.9,97,96.1,3
162975,217022,--,0.605,0.444,-0.660,67.9,97,96.1,3
162979,217019,--,0.605,0.444,-0.660,67.9,97,96.1,3
162990,217033,--,0.605,0.444,-0.660,67.9,97,96.1,3
162990,217032,--,0.605,0.445,-0.658,67.9,97,96.1,3
163004,217025,--,0.605,0.445,-0.658,67.9,97,96.1,3
163017,217037,--,0.605,0.445,-0.658,67.9,97,96.1,3
163011,217039,--,0.605,0.445,-0.658,67.9,97,96.1,3
163010,217031,--,0.604,0.445,-0.655,67.9,97,96.1,3
163003,217024,--,0.604,0.445,-0.655,67.9,97,96.1,3
162980,217022,--,0.604,0.445,-0.655,67.9,97,96.1,3
162947,216996,--,0.604,0.445,-0.655,67.9,97,96.1,3
162886,216960,--,0.604,0.444,-0.657,67.9,97,96.1,3
162831,216933,--,0.604,0.444,-0.659,67.9,97,96.1,3
162778,216903,--,0.605,0.443,-0.659,67.9,97,96.1,3
162728,216872,--,0.606,0.444,-0.658,67.9,97,96.1,3
162674,216840,--,0.606,0.444,-0.657,67.9,97,96.1,3
162634,216817,--,0.606,0.444,-0.657,67.9,97,96.1,3
162611,216799,--,0.606,0.444,-0.657,67.9,97,96.1,3
162586,216795,--,0.605,0.445,-0.656,67.9,97,96.1,3
162589,216794,--,0.605,0.445,-0.656,67.9,97,96.1,3
162576,216790,--,0.605,0.445,-0.656,67.9,97,96.1,3
162578,216781,--,0.605,0.445,-0.656,67.9,97,96.1,3
162599,216789,--,0.604,0.445,-0.655,67.9,97,96.1,3
162606,216796,--,0.604,0.445,-0.655,67.9,97,96.1,3
162611,216801,--,0.604,0.445,-0.655,67.9,97,96.1,3
162613,216799,--,0.604,0.445,-0.655,67.9,97,96.1,3
162618,216814,--,0.604,0.445,-0.655,67.9,97,96.1,3
162618,216810,--,0.604,0.445,-0.656,67.9,97,96.1,3
162615,216804,--,0.606,0.444,-0.656,67.9,97,96.1,3
162612,216790,--,0.606,0.445,-0.656,67.9,97,96.1,3
162618,216791,--,0.605,0.444,-0.656,67.9,97,96.1,3
162627,216800,--,0.604,0.445,-0.658,67.9,97,96.1,3
162623,216800,--,0.604,0.445,-0.658,67.9,97,96.1,3
162642,216797,--,0.604,0.446,-0.659,67.9,97,96.3,3
162657,216819,--,0.604,0.446,-0.659,67.9,97,96.3,3
162665,216820,--,0.604,0.446,-0.659,67.9,97,96.3,3
162673,216825,--,0.605,0.447,-0.656,67.9,97,96.3,3
162679,216827,--,0.605,0.447,-0.656,67.9,97,96.3,3
162688,216827,--,0.605,0.447,-0.656,67.9,97,96.3,3
162677,216834,--,0.605,0.447,-0.656,67.9,97,96.3,3
162674,216829,--,0.606,0.446,-0.656,67.9,97,96.3,3
162667,216818,--,0.606,0.446,-0.656,67.9,97,96.3,3
162662,216820,--,0.606,0.446,-0.656,67.9,97,96.3,3
162653,216811,--,0.606,0.444,-0.657,67.9,97,96.3,3
162652,216821,--,0.605,0.443,-0.658,67.9,97,96.3,3
162655,216816,--,0.605,0.442,-0.659,67.9,97,96.3,3
162642,216812,--,0.604,0.442,-0.658,67.9,97,96.3,3
162645,216806,--,0.604,0.444,-0.658,67.9,97,96.3,3
162660,216818,--,0.606,0.445,-0.658,67.9,97,96.3,3
162651,216817,--,0.606,0.445,-0.658,67.9,97,96.3,3
162668,216819,--,0.606,0.445,-0.658,67.9,97,96.3,3
162672,216825,--,0.606,0.445,-0.658,67.9,97,96.3,3
162681,216826,--,0.607,0.445,-0.658,67.6,97,96.3,3
162697,216837,--,0.607,0.445,-0.658,67.6,97,96.3,3
162710,216838,--,0.606,0.443,-0.658,67.6,97,96.3,3
162716,216837,--,0.606,0.443,-0.658,67.6,97,96.3,3
162728,216855,--,0.606,0.443,-0.658,67.6,97,96.3,3
162738,216871,--,0.605,0.442,-0.661,67.6,97,96.3,3
162754,216875,--,0.605,0.442,-0.661,67.6,97,96.3,3
162754,216869,--,0.605,0.442,-0.661,67.6,97,96.3,3
162756,216884,--,0.605,0.442,-0.661,67.6,97,96.3,3
162762,216885,--,0.604,0.442,-0.661,67.6,97,96.3,3
162773,216882,--,0.605,0.444,-0.660,67.6,97,96.3,3
162776,216878,--,0.606,0.446,-0.657,67.6,97,96.3,3
162794,216880,--,0.606,0.444,-0.657,67.6,97,96.3,3
162801,216891,--,0.605,0.444,-0.659,67.6,97,96.3,3
162798,216883,--,0.605,0.444,-0.659,67.6,97,96.3,3
162805,216893,--,0.604,0.444,-0.659,67.6,97,96.3,3
162812,216890,--,0.604,0.444,-0.659,67.6,97,96.3,3
162815,216895,--,0.604,0.444,-0.659,67.6,97,96.3,3
162815,216895,--,0.604,0.445,-0.657,67.6,97,96.3,3
162824,216904,--,0.604,0.445,-0.657,67.6,97,96.3,3
162842,216907,--,0.604,0.445,-0.657,67.6,97,96.3,3
162845,216912,--,0.604,0.446,-0.656,67.6,97,96.3,3
162843,216921,--,0.604,0.446,-0.656,67.6,97,96.3,3
162850,216935,--,0.604,0.446,-0.656,67.6,97,96.3,3
162853,216931,--,0.604,0.446,-0.656,67.6,97,96.3,3
162866,216924,--,0.605,0.446,-0.656,67.6,97,96.3,3
162868,216924,--,0.606,0.446,-0.656,67.6,97,96.3,3
162863,216920,--,0.606,0.445,-0.657,67.6,97,96.3,3
162881,216925,--,0.605,0.443,-0.659,67.6,97,96.3,3
162883,216931,--,0.603,0.443,-0.661,67.6,97,96.3,3
162885,216940,--,0.604,0.444,-0.661,67.6,97,96.3,3
162895,216932,--,0.604,0.444,-0.661,67.6,97,96.3,3
162911,216948,--,0.604,0.444,-0.661,67.6,97,96.3,3
162914,216951,--,0.606,0.447,-0.658,67.6,97,96.3,3
162927,216950,--,0.606,0.447,-0.658,67.6,97,96.3,3
162926,216949,--,0.606,0.447,-0.658,67.6,97,96.3,3
162942,216960,--,0.606,0.447,-0.658,67.6,97,96.3,3
162950,216969,--,0.606,0.447,-0.656,67.6,97,96.3,3
162957,216965,--,0.606,0.447,-0.656,67.6,97,96.3,3
162968,216979,--,0.606,0.447,-0.656,67.6,97,96.3,3
162978,216982,--,0.605,0.446,-0.657,67.6,97,96.3,3
162984,216983,--,0.605,0.446,-0.657,67.6,97,96.3,3
162997,216972,--,0.605,0.446,-0.657,67.6,97,96.3,3
163012,216979,--,0.604,0.445,-0.657,67.6,97,96.3,3
163020,216996,--,0.604,0.443,-0.657,67.6,97,96.3,3
163026,217002,--,0.604,0.444,-0.659,67.6,97,96.3,3
163051,217006,--,0.604,0.446,-0.657,67.6,97,96.3,3
163046,217006,--,0.606,0.447,-0.655,67.6,97,96.3,3
163044,217015,--,0.607,0.447,-0.655,67.6,97,96.3,3
163039,217022,--,0.607,0.447,-0.655,67.6,97,96.3,3
163016,216995,--,0.607,0.447,-0.655,67.6,97,96.3,3
162990,216962,--,0.605,0.445,-0.658,67.6,97,96.3,3
162943,216954,--,0.605,0.445,-0.658,67.6,97,96.3,3
162878,216919,--,0.605,0.445,-0.658,67.6,97,96.3,3
162839,216889,--,0.605,0.445,-0.658,67.6,97,96.3,3
162776,216849,--,0.604,0.444,-0.662,67.6,97,96.3,3
162741,216827,--,0.604,0.444,-0.662,67.6,97,96.3,3
162702,216805,--,0.604,0.444,-0.662,67.6,97,96.3,3
162670,216779,--,0.604,0.443,-0.661,67.6,97,96.3,3
162660,216776,--,0.604,0.443,-0.661,67.6,97,96.3,3
162651,216768,--,0.605,0.444,-0.657,67.6,97,96.3,3
162652,216782,--,0.605,0.446,-0.657,67.6,97,96.3,3
162662,216781,--,0.605,0.446,-0.658,67.6,97,96.3,3
162669,216784,--,0.604,0.446,-0.659,67.6,97,96.3,3
162676,216787,--,0.604,0.445,-0.659,67.6,97,96.3,3
162691,216781,--,0.604,0.445,-0.659,67.6,97,96.3,3
162693,216788,--,0.604,0.445,-0.659,67.6,97,96.3,3
162701,216791,--,0.604,0.445,-0.659,67.6,97,96.3,3
162704,216787,--,0.604,0.445,-0.659,67.6,97,96.3,3
162707,216783,--,0.604,0.445,-0.659,67.6,97,96.3,3
162699,216775,--,0.604,0.445,-0.660,67.6,97,96.3,3
162714,216786,--,0.604,0.445,-0.660,67.6,97,96.3,3
162713,216798,--,0.604,0.445,-0.660,67.6,97,96.3,3
162736,216792,--,0.604,0.446,-0.658,67.6,97,96.3,3
162734,216805,--,0.604,0.446,-0.658,67.6,97,96.5,3
162748,216803,--,0.604,0.446,-0.658,67.6,97,96.5,3
162766,216805,--,0.605,0.446,-0.657,67.6,97,96.5,3
162784,216822,--,0.605,0.446,-0.656,67.6,97,96.5,3
162781,216814,--,0.605,0.446,-0.657,67.6,97,96.5,3
162780,216804,--,0.605,0.445,-0.658,67.6,97,96.5,3
162776,216811,--,0.604,0.444,-0.659,67.6,97,96.5,3
162774,216811,--,0.604,0.444,-0.659,67.6,97,96.5,3
162763,216799,--,0.605,0.445,-0.657,67.6,97,96.5,3
162761,216799,--,0.605,0.445,-0.657,67.6,97,96.5,3
162752,216791,--,0.605,0.445,-0.657,67.6,97,96.5,3
162756,216786,--,0.605,0.446,-0.656,67.6,97,96.5,3
162749,216786,--,0.605,0.446,-0.656,67.6,97,96.5,3
162761,216793,--,0.605,0.446,-0.656,67.6,97,96.5,3
162762,216801,--,0.604,0.446,-0.657,67.6,97,96.5,3
162766,216791,--,0.604,0.446,-0.657,67.6,97,96.5,3
162785,216802,--,0.604,0.446,-0.657,67.6,97,96.5,3
162790,216800,--,0.604,0.446,-0.657,67.6,97,96.5,3
162796,216810,--,0.604,0.445,-0.659,67.6,97,96.5,3
162814,216820,--,0.604,0.445,-0.659,67.6,97,96.5,3
162825,216811,--,0.604,0.445,-0.659,67.6,97,96.5,3
162830,216832,--,0.604,0.446,-0.658,67.6,97,96.5,3
162851,216830,--,0.605,0.446,-0.656,67.6,97,96.5,3
162852,216843,--,0.605,0.446,-0.657,67.6,97,96.5,3
162866,216847,--,0.604,0.445,-0.658,67.6,97,96.5,3
162883,216858,--,0.604,0.445,-0.658,67.6,97,96.5,3
162877,216846,--,0.604,0.445,-0.660,67.4,97,96.5,3
162901,216851,--,0.604,0.445,-0.660,67.4,97,96.5,3
162911,216857,--,0.604,0.446,-0.659,67.4,97,96.5,3
162910,216856,--,0.604,0.446,-0.659,67.4,97,96.5,3
162914,216863,--,0.604,0.446,-0.659,67.4,97,96.5,3
162921,216864,--,0.604,0.446,-0.659,67.4,97,96.5,3
162942,216869,--,0.604,0.446,-0.657,67.4,97,96.5,3
162942,216874,--,0.604,0.446,-0.657,67.4,97,96.5,3
162942,216876,--,0.604,0.446,-0.657,67.4,97,96.5,3
162950,216879,--,0.604,0.446,-0.657,67.4,97,96.5,3
162960,216890,--,0.604,0.446,-0.657,67.4,97,96.5,3
162962,216890,--,0.604,0.446,-0.656,67.4,97,96.5,3
162976,216901,--,0.604,0.446,-0.656,67.4,97,96.5,3
162980,216905,--,0.605,0.447,-0.655,67.4,97,96.5,3
162984,216893,--,0.604,0.447,-0.655,67.4,97,96.5,3
162984,216896,--,0.604,0.446,-0.657,67.4,97,96.5,3
162996,216901,--,0.604,0.446,-0.657,67.4,97,96.5,3
162999,216905,--,0.604,0.446,-0.657,67.4,97,96.5,3
163007,216913,--,0.604,0.446,-0.657,67.4,97,96.5,3
163010,216918,--,0.604,0.447,-0.658,67.4,97,96.5,3
163019,216917,--,0.604,0.447,-0.658,67.4,97,96.5,3
163011,216922,--,0.604,0.447,-0.658,67.4,97,96.5,3
163027,216921,--,0.604,0.447,-0.656,67.4,97,96.5,3
163027,216918,--,0.604,0.447,-0.656,67.4,97,96.5,3
163037,216924,--,0.604,0.447,-0.656,67.4,97,96.5,3
163046,216928,--,0.604,0.447,-0.655,67.4,97,96.5,3
163054,216929,--,0.604,0.447,-0.655,67.4,97,96.5,3
163070,216927,--,0.604,0.447,-0.655,67.4,97,96.5,3
163076,216939,--,0.605,0.447,-0.655,67.4,97,96.5,3
163087,216945,--,0.605,0.446,-0.657,67.4,97,96.5,3
163090,216956,--,0.604,0.444,-0.657,67.4,97,96.5,3
163105,216950,--,0.605,0.444,-0.659,67.4,97,96.5,3
163127,216960,--,0.606,0.445,-0.660,67.4,97,96.5,3
163130,216968,--,0.606,0.445,-0.660,67.4,97,96.5,3
163143,216975,--,0.605,0.446,-0.656,67.4,97,96.5,3
163156,216980,--,0.605,0.446,-0.656,67.4,97,96.5,3
163160,216985,--,0.605,0.446,-0.656,67.4,97,96.5,3
163167,216994,--,0.604,0.447,-0.655,67.4,97,96.5,3
163169,216995,--,0.604,0.447,-0.655,67.4,97,96.5,3
163181,216992,--,0.604,0.447,-0.655,67.4,97,96.5,3
163176,216996,--,0.604,0.448,-0.655,67.4,97,96.5,3
163163,216980,--,0.604,0.448,-0.655,67.4,97,96.5,3
163122,216951,--,0.604,0.448,-0.655,67.4,97,96.5,3
163081,216932,--,0.604,0.448,-0.655,67.4,97,96.5,3
163026,216897,--,0.605,0.447,-0.655,67.4,97,96.5,3
162970,216872,--,0.606,0.446,-0.660,67.4,97,96.5,3
162920,216835,--,0.610,0.447,-0.671,67.4,97,96.5,3
162868,216820,--,0.614,0.453,-0.678,67.4,97,96.5,3
162830,216791,--,0.611,0.461,-0.667,67.4,97,96.5,3
162802,216774,--,0.612,0.466,-0.654,67.4,97,96.5,3
162790,216755,--,0.612,0.466,-0.654,67.4,97,96.5,3
162775,216753,--,0.612,0.466,-0.654,67.4,97,96.5,3
162789,216760,--,0.629,0.466,-0.665,67.4,97,96.5,3
162795,216773,--,0.629,0.466,-0.665,67.4,97,96.5,3
162806,216770,--,0.629,0.466,-0.665,67.4,97,96.5,3
162809,216785,--,0.643,0.461,-0.689,67.4,97,96.5,3
162824,216783,--,0.643,0.461,-0.689,67.4,97,96.5,3
162831,216785,--,0.643,0.461,-0.689,67.4,97,96.5,3
162827,216760,--,0.643,0.461,-0.689,67.4,97,96.5,3
162820,216755,--,0.633,0.457,-0.702,67.4,97,96.5,3
162814,216745,--,0.633,0.457,-0.702,67.4,97,96.5,3
162812,216734,--,0.633,0.457,-0.702,67.4,97,96.5,3
162809,216726,--,0.623,0.458,-0.703,67.4,97,96.5,3
162806,216731,--,0.619,0.464,-0.703,67.4,97,96.5,3
162812,216733,--,0.606,0.466,-0.707,67.4,97,96.5,3
162817,216715,--,0.586,0.465,-0.722,67.4,97,96.9,3
162825,216710,--,0.571,0.467,-0.741,67.4,97,96.9,3
162822,216708,--,0.554,0.466,-0.744,67.4,97,96.9,3
162820,216678,--,0.554,0.466,-0.744,67.4,97,96.9,3
162819,216673,--,0.554,0.466,-0.744,67.4,97,96.9,3
162818,216649,--,0.532,0.466,-0.740,67.4,97,96.9,3
162802,216638,--,0.532,0.466,-0.740,67.4,97,96.9,3
162803,216614,--,0.532,0.466,-0.740,67.4,97,96.9,3
162796,216600,--,0.516,0.467,-0.740,67.4,97,96.9,3
162776,216588,--,0.516,0.467,-0.740,67.4,97,96.9,3
162767,216566,--,0.516,0.467,-0.740,67.4,97,96.9,3
162759,216554,--,0.503,0.468,-0.743,67.4,97,96.9,3
162754,216530,--,0.503,0.468,-0.743,67.4,97,96.9,3
162746,216522,--,0.503,0.468,-0.743,67.4,97,96.9,3
162738,216510,--,0.492,0.470,-0.756,67.4,97,96.9,3
162748,216508,--,0.480,0.470,-0.776,67.4,97,96.9,3
162774,216512,--,0.452,0.468,-0.804,67.4,97,96.9,3
162787,216522,--,0.424,0.468,-0.836,67.4,97,96.9,3
162826,216528,--,0.403,0.471,-0.861,67.4,97,96.9,3
162847,216550,--,0.403,0.471,-0.861,67.4,97,96.9,3
162865,216563,--,0.378,0.474,-0.877,67.4,97,96.9,3
162888,216567,--,0.378,0.474,-0.877,67.4,97,96.9,3
162900,216572,--,0.378,0.474,-0.877,67.4,97,96.9,3
162929,216575,--,0.378,0.474,-0.877,67.4,97,96.9,3
162938,216609,--,0.343,0.477,-0.899,67.4,97,96.9,3
162949,216609,--,0.343,0.477,-0.899,67.4,97,96.9,3
162969,216613,--,0.343,0.477,-0.899,67.4,97,96.9,3
162971,216607,--,0.308,0.480,-0.920,0.0,0,96.9,3
162976,216609,--,0.308,0.480,-0.920,0.0,0,96.9,3
162983,216608,--,0.308,0.480,-0.920,0.0,0,96.9,3
162991,216602,--,0.294,0.486,-0.918,0.0,0,96.9,3
162991,216611,--,0.285,0.489,-0.898,0.0,0,96.9,3
163008,216609,--,0.272,0.489,-0.876,0.0,0,96.9,3
163011,216604,--,0.258,0.490,-0.861,0.0,0,96.9,3
163015,216610,--,0.260,0.492,-0.868,0.0,0,96.9,3
163023,216615,--,0.277,0.496,-0.882,0.0,0,96.9,3
163023,216616,--,0.277,0.496,-0.882,0.0,0,96.9,3
163022,216603,--,0.277,0.496,-0.882,0.0,0,96.9,3
163027,216618,--,0.262,0.494,-0.864,0.0,0,96.9,3
163040,216614,--,0.262,0.494,-0.864,0.0,0,96.9,3
163045,216622,--,0.262,0.494,-0.864,0.0,0,96.9,3
163046,216616,--,0.202,0.483,-0.822,0.0,0,96.9,3
163052,216618,--,0.202,0.483,-0.822,0.0,0,96.9,3
163058,216620,--,0.202,0.483,-0.822,0.0,0,96.9,3
163076,216629,--,0.125,0.470,-0.788,0.0,0,96.9,3
163070,216624,--,0.125,0.470,-0.788,0.0,0,96.9,3
163085,216613,--,0.125,0.470,-0.788,0.0,0,96.9,3
163074,216622,--,0.125,0.470,-0.788,0.0,0,96.9,3
163091,216629,--,0.063,0.461,-0.775,0.0,0,96.9,3
163095,216637,--,0.011,0.451,-0.779,0.0,0,96.9,3
163112,216643,--,-0.024,0.440,-0.794,0.0,0,96.9,3
163125,216659,--,-0.029,0.434,-0.818,0.0,0,96.9,3
163136,216662,--,-0.013,0.435,-0.842,0.0,0,96.9,3
163150,216661,--,-0.013,0.435,-0.842,0.0,0,96.9,3
163162,216670,--,0.017,0.437,-0.854,0.0,0,96.9,3
163180,216679,--,0.017,0.437,-0.854,0.0,0,96.9,3
163187,216685,--,0.017,0.437,-0.854,0.0,0,96.9,3
163202,216683,--,0.055,0.437,-0.851,0.0,0,96.9,3
163208,216696,--,0.055,0.437,-0.851,0.0,0,96.9,3
163219,216710,--,0.055,0.437,-0.851,0.0,0,96.9,3
163219,216709,--,0.055,0.437,-0.851,0.0,0,96.9,3
163230,216736,--,0.093,0.435,-0.834,0.0,0,96.9,3
163238,216733,--,0.093,0.435,-0.834,0.0,0,96.9,3
163233,216742,--,0.093,0.435,-0.834,0.0,0,96.9,3
163240,216738,--,0.128,0.427,-0.807,0.0,0,96.9,3
163239,216739,--,0.162,0.417,-0.772,0.0,0,96.9,3
163251,216759,--,0.217,0.410,-0.748,0.0,0,96.9,3
163255,216757,--,0.307,0.411,-0.745,0.0,0,96.9,3
163240,216748,--,0.407,0.420,-0.752,0.0,0,96.9,3
163244,216760,--,0.494,0.427,-0.738,0.0,0,96.9,3
163235,216746,--,0.494,0.427,-0.738,0.0,0,96.9,3
163212,216742,--,0.494,0.427,-0.738,0.0,0,96.9,3
163171,216710,--,0.572,0.427,-0.684,0.0,0,96.9,3
163119,216681,--,0.572,0.427,-0.684,0.0,0,96.9,3
163058,216641,--,0.572,0.427,-0.684,0.0,0,96.9,3
163001,216603,--,0.572,0.427,-0.684,0.0,0,96.9,3
162944,216565,--,0.648,0.423,-0.614,0.0,0,96.9,3
162881,216542,--,0.648,0.423,-0.614,0.0,0,96.9,3
162839,216510,--,0.648,0.423,-0.614,0.0,0,96.9,3
162805,216483,--,0.726,0.418,-0.553,0.0,0,96.9,3
162781,216461,--,0.726,0.418,-0.553,0.0,0,96.9,3
162751,216442,--,0.726,0.418,-0.553,0.0,0,96.9,3
162758,216429,--,0.791,0.411,-0.504,0.0,0,96.9,3
162763,216432,--,0.821,0.395,-0.452,0.0,0,96.9,3
162776,216440,--,0.833,0.374,-0.396,0.0,0,96.9,3
162787,216442,--,0.857,0.358,-0.347,0.0,0,96.9,3
162796,216449,--,0.895,0.350,-0.310,0.0,0,96.9,3
162804,216456,--,0.934,0.344,-0.280,0.0,0,96.9,3
162809,216466,--,0.934,0.344,-0.280,0.0,0,96.9,3
162807,216458,--,0.934,0.344,-0.280,0.0,0,96.9,3
162809,216463,--,0.934,0.344,-0.280,0.0,0,96.9,3
162804,216458,--,0.965,0.335,-0.256,0.0,0,96.9,3
162812,216446,--,0.965,0.335,-0.256,0.0,0,96.9,3
162799,216446,--,0.965,0.335,-0.256,0.0,0,96.9,3
162803,216433,--,0.993,0.326,-0.233,0.0,0,96.9,3
162797,216443,--,0.993,0.326,-0.233,0.0,0,96.9,3
162813,216439,--,0.993,0.326,-0.233,0.0,0,96.9,3
162820,216441,--,1.008,0.318,-0.207,0.0,0,96.9,3
162831,216460,--,1.008,0.318,-0.207,0.0,0,96.9,3
162840,216473,--,1.011,0.310,-0.182,0.0,0,96.9,3
162843,216468,--,1.009,0.304,-0.164,0.0,0,96.9,3
162846,216481,--,1.000,0.297,-0.146,0.0,0,96.9,3
162840,216475,--,0.979,0.289,-0.135,0.0,0,96.9,3
162833,216469,--,0.946,0.281,-0.136,0.0,0,96.9,3
162830,216479,--,0.946,0.281,-0.136,0.0,0,96.9,3
162829,216466,--,0.946,0.281,-0.136,0.0,0,96.9,3
162812,216456,--,0.917,0.274,-0.145,0.0,0,96.9,3
162820,216451,--,0.917,0.274,-0.145,0.0,0,96.9,3
162815,216462,--,0.917,0.274,-0.145,0.0,0,96.9,3
162812,216450,--,0.914,0.276,-0.159,0.0,0,96.9,3
162814,216462,--,0.914,0.276,-0.159,0.0,0,96.9,3
162828,216466,--,0.914,0.276,-0.159,0.0,0,96.9,3
162837,216474,--,0.926,0.286,-0.171,0.0,0,96.9,3
162841,216477,--,0.926,0.286,-0.171,0.0,0,96.9,3
162848,216473,--,0.926,0.286,-0.171,0.0,0,96.9,3
162861,216478,--,0.926,0.286,-0.171,0.0,0,96.9,3
162873,216474,--,0.932,0.292,-0.169,0.0,0,96.9,3
162869,216470,--,0.931,0.294,-0.166,0.0,0,96.9,3
162891,216489,--,0.928,0.294,-0.177,0.0,0,96.9,3
162895,216484,--,0.916,0.293,-0.197,0.0,0,96.9,3
162911,216477,--,0.901,0.293,-0.221,0.0,0,96.9,3
162902,216473,--,0.900,0.298,-0.243,0.0,0,96.9,3
162918,216482,--,0.900,0.298,-0.243,0.0,0,96.9,3
162926,216483,--,0.900,0.298,-0.243,0.0,0,96.9,3
162924,216477,--,0.910,0.306,-0.261,0.0,0,96.9,3
162932,216491,--,0.910,0.306,-0.261,0.0,0,96.9,3
162932,216499,--,0.910,0.306,-0.261,0.0,0,96.9,3
162938,216495,--,0.922,0.314,-0.272,0.0,0,96.9,3
162943,216511,--,0.922,0.314,-0.272,0.0,0,96.9,3
162949,216504,--,0.922,0.314,-0.272,0.0,0,96.9,3
162957,216512,--,0.922,0.314,-0.272,0.0,0,96.9,3
162946,216502,--,0.917,0.317,-0.288,0.0,0,96.9,3
162957,216507,--,0.917,0.317,-0.288,0.0,0,96.9,3
162958,216507,--,0.898,0.316,-0.310,0.0,0,96.9,3
162960,216507,--,0.878,0.316,-0.334,0.0,0,96.9,3
162959,216500,--,0.852,0.315,-0.363,0.0,0,96.9,3
162977,216506,--,0.822,0.311,-0.396,0.0,0,96.9,3
162971,216505,--,0.806,0.315,-0.430,0.0,0,96.9,3
162985,216516,--,0.797,0.323,-0.460,0.0,0,96.9,3
162993,216519,--,0.797,0.323,-0.460,0.0,0,96.9,3
163001,216525,--,0.797,0.323,-0.460,0.0,0,96.9,3
163004,216534,--,0.783,0.331,-0.482,0.0,0,96.9,3
163010,216527,--,0.783,0.331,-0.482,0.0,0,96.9,3
163011,216529,--,0.783,0.331,-0.482,0.0,0,96.9,3
163021,216533,--,0.783,0.331,-0.482,0.0,0,96.9,3
163030,216525,--,0.768,0.335,-0.490,0.0,0,96.9,3
163028,216528,--,0.768,0.335,-0.490,0.0,0,96.9,3
163048,216530,--,0.768,0.335,-0.490,0.0,0,96.9,3
163046,216521,--,0.775,0.340,-0.483,0.0,0,96.9,3
163054,216525,--,0.775,0.340,-0.483,0.0,0,96.9,3
163063,216540,--,0.813,0.353,-0.463,0.0,0,96.9,3
163066,216542,--,0.858,0.365,-0.443,0.0,0,96.9,3
163075,216556,--,0.889,0.372,-0.434,0.0,0,96.9,3
163083,216568,--,0.911,0.376,-0.445,0.0,0,96.9,3
163083,216566,--,0.925,0.378,-0.464,0.0,0,96.9,3
163097,216579,--,0.925,0.378,-0.464,0.0,0,96.9,3
163109,216574,--,0.925,0.378,-0.464,0.0,0,96.9,3
163108,216594,--,0.925,0.378,-0.464,0.0,0,96.9,3
163119,216593,--,0.915,0.380,-0.472,0.0,0,96.9,3
163129,216601,--,0.915,0.380,-0.472,0.0,0,96.9,3
163127,216611,--,0.915,0.380,-0.472,0.0,0,96.9,3
163132,216608,--,0.891,0.380,-0.483,0.0,0,96.9,3
163141,216618,--,0.891,0.380,-0.483,0.0,0,96.9,3
163136,216622,--,0.891,0.380,-0.483,0.0,0,96.9,3
163123,216614,--,0.853,0.379,-0.503,0.0,0,96.9,3
163103,216609,--,0.853,0.379,-0.503,0.0,0,96.9,3
163074,216604,--,0.853,0.379,-0.503,0.0,0,96.9,3
163026,216583,--,0.797,0.377,-0.530,0.0,0,96.9,3
162989,216555,--,0.743,0.375,-0.566,0.0,0,96.9,3
162938,216530,--,0.695,0.375,-0.603,0.0,0,96.9,3
162910,216498,--,0.647,0.373,-0.626,0.0,0,96.9,3
162860,216478,--,0.604,0.370,-0.643,0.0,0,96.9,3
162827,216452,--,0.604,0.370,-0.643,0.0,0,96.9,3
162824,216455,--,0.573,0.370,-0.667,0.0,0,96.9,3
162806,216433,--,0.573,0.370,-0.667,0.0,0,96.9,3
162806,216435,--,0.573,0.370,-0.667,0.0,0,96.9,3
162810,216433,--,0.560,0.373,-0.699,0.0,0,96.9,3
162809,216428,--,0.560,0.373,-0.699,0.0,0,96.9,3
162827,216424,--,0.560,0.373,-0.699,0.0,0,96.9,3
162836,216427,--,0.560,0.373,-0.699,0.0,0,96.9,3
162837,216430,--,0.561,0.376,-0.728,0.0,0,96.9,3
162854,216438,--,0.561,0.376,-0.728,0.0,0,96.9,3
162852,216434,--,0.561,0.376,-0.728,0.0,0,96.9,3
162860,216450,--,0.569,0.380,-0.749,0.0,0,96.9,3
162859,216452,--,0.568,0.382,-0.758,0.0,0,96.9,3
162863,216445,--,0.552,0.382,-0.759,0.0,0,96.9,3
162858,216461,--,0.530,0.382,-0.760,0.0,0,96.9,3
162865,216447,--,0.508,0.381,-0.764,0.0,0,96.9,3
162877,216462,--,0.493,0.380,-0.776,0.0,0,96.9,3
162877,216452,--,0.493,0.380,-0.776,67.1,96,96.9,3
162883,216468,--,0.493,0.380,-0.776,67.1,96,96.9,3
162902,216473,--,0.481,0.379,-0.791,67.1,96,96.9,3
162900,216468,--,0.481,0.379,-0.791,67.1,96,96.9,3
162906,216479,--,0.481,0.379,-0.791,67.1,96,96.9,3
162911,216485,--,0.464,0.376,-0.804,67.1,96,96.9,3
162919,216491,--,0.464,0.376,-0.804,67.1,96,96.9,3
162911,216488,--,0.464,0.376,-0.804,67.1,96,96.9,3
162906,216494,--,0.446,0.373,-0.813,67.1,96,96.9,3
162905,216483,--,0.446,0.373,-0.813,67.1,96,96.9,3
162888,216482,--,0.446,0.373,-0.813,67.1,96,96.9,3
162889,216474,--,0.446,0.373,-0.813,67.1,96,96.9,3
162896,216475,--,0.433,0.370,-0.818,67.1,96,96.9,3
162894,216476,--,0.423,0.370,-0.825,67.1,96,96.9,3
162901,216471,--,0.413,0.370,-0.833,67.1,96,96.9,3
162903,216483,--,0.405,0.369,-0.841,67.1,96,96.9,3
162904,216477,--,0.401,0.367,-0.847,67.1,96,96.9,3
162917,216482,--,0.405,0.368,-0.845,67.1,96,96.9,3
162919,216482,--,0.405,0.368,-0.845,67.1,96,96.9,3
162932,216490,--,0.405,0.368,-0.845,67.1,96,96.9,3
162936,216496,--,0.405,0.368,-0.845,67.1,96,96.9,3
162954,216489,--,0.420,0.372,-0.838,67.1,96,96.9,3
162967,216494,--,0.420,0.372,-0.838,67.1,96,96.9,3
162972,216500,--,0.420,0.372,-0.838,67.1,96,96.9,3
162975,216498,--,0.428,0.374,-0.824,67.1,96,96.9,3
162989,216506,--,0.428,0.374,-0.824,67.1,96,96.9,3
162992,216493,--,0.428,0.374,-0.824,67.1,96,96.9,3
162998,216501,--,0.431,0.372,-0.822,67.1,96,96.9,3
162997,216507,--,0.431,0.372,-0.822,67.1,96,96.9,3
163011,216508,--,0.446,0.373,-0.846,67.1,96,96.9,3
163017,216511,--,0.481,0.378,-0.874,67.1,96,96.9,3
163017,216511,--,0.531,0.387,-0.879,67.1,96,96.9,3
163016,216518,--,0.571,0.397,-0.859,67.1,96,96.9,3
163025,216507,--,0.583,0.401,-0.826,67.1,96,96.9,3
163037,216515,--,0.583,0.401,-0.826,67.1,96,96.9,3
163033,216516,--,0.583,0.401,-0.826,67.1,96,96.9,3
163028,216500,--,0.572,0.398,-0.798,67.1,96,96.9,3
163028,216508,--,0.572,0.398,-0.798,67.1,96,96.9,3
163032,216513,--,0.572,0.398,-0.798,67.1,96,96.9,3
163024,216508,--,0.559,0.395,-0.782,67.1,96,96.9,3
163033,216515,--,0.559,0.395,-0.782,67.1,96,96.9,3
163039,216513,--,0.559,0.395,-0.782,67.1,96,96.9,3
163042,216512,--,0.558,0.396,-0.779,67.1,96,96.9,3
163064,216505,--,0.558,0.396,-0.779,67.1,96,96.9,3
163062,216508,--,0.558,0.396,-0.779,67.1,96,96.9,3
163064,216502,--,0.558,0.396,-0.779,67.1,96,96.9,3
163073,216513,--,0.557,0.396,-0.781,67.1,96,96.9,3
163083,216521,--,0.550,0.393,-0.778,67.1,96,96.9,3
163081,216519,--,0.535,0.389,-0.768,67.1,96,96.9,3
163096,216530,--,0.513,0.385,-0.752,67.1,96,96.9,3
163101,216540,--,0.492,0.381,-0.737,67.1,96,96.9,3
163103,216540,--,0.474,0.377,-0.732,67.1,96,96.9,3
163108,216542,--,0.474,0.377,-0.732,67.1,96,96.9,3
163111,216553,--,0.474,0.377,-0.732,67.1,96,96.9,3
163109,216541,--,0.459,0.375,-0.736,67.1,96,96.9,3
163128,216557,--,0.459,0.375,-0.736,67.1,96,96.9,3
163134,216557,--,0.459,0.375,-0.736,67.1,96,96.9,3
163143,216555,--,0.451,0.373,-0.740,67.1,96,96.9,3
163156,216570,--,0.451,0.373,-0.740,67.1,96,96.9,3
163163,216582,--,0.451,0.373,-0.740,67.1,96,96.9,3
163179,216592,--,0.451,0.372,-0.738,67.1,96,96.9,3
163189,216589,--,0.451,0.372,-0.738,67.1,96,96.9,3
163200,216595,--,0.451,0.372,-0.738,67.1,96,96.9,3
163207,216598,--,0.454,0.373,-0.733,67.1,96,96.9,3
163212,216602,--,0.456,0.373,-0.732,67.1,96,96.9,3
163197,216586,--,0.462,0.373,-0.732,67.1,96,96.9,3
163194,216583,--,0.472,0.373,-0.733,67.1,96,96.9,3
163182,216566,--,0.488,0.375,-0.738,67.1,96,96.9,3
163159,216553,--,0.488,0.375,-0.738,67.1,96,96.9,3
163094,216521,--,0.517,0.378,-0.745,67.1,96,96.9,3
163043,216495,--,0.517,0.378,-0.745,67.1,96,96.9,3
162982,216454,--,0.517,0.378,-0.745,67.1,96,96.9,3
162929,216422,--,0.550,0.381,-0.749,67.1,96,96.9,3
162889,216394,--,0.550,0.381,-0.749,67.1,96,96.9,3
162855,216378,--,0.550,0.381,-0.749,67.1,96,96.9,3
162822,216369,--,0.550,0.381,-0.749,67.1,96,96.9,3
162810,216361,--,0.573,0.383,-0.754,67.1,96,96.9,3
162795,216360,--,0.573,0.383,-0.754,67.1,96,96.9,3
162805,216361,--,0.573,0.383,-0.754,67.1,96,96.9,3
162816,216365,--,0.585,0.384,-0.765,67.1,96,96.9,3
162837,216375,--,0.594,0.385,-0.781,67.1,96,96.9,3
162833,216385,--,0.603,0.388,-0.793,67.1,96,96.9,3
162852,216378,--,0.612,0.392,-0.798,67.1,96,96.9,3
162861,216395,--,0.613,0.393,-0.793,67.1,96,96.9,3
162854,216387,--,0.604,0.391,-0.781,67.1,96,96.9,3
162867,216397,--,0.604,0.391,-0.781,67.1,96,96.9,3
162857,216397,--,0.604,0.391,-0.781,67.1,96,96.9,3
162864,216378,--,0.588,0.388,-0.768,67.1,96,96.9,3
162860,216383,--,0.588,0.388,-0.768,67.1,96,96.9,3
162872,216392,--,0.588,0.388,-0.768,67.1,96,96.9,3
162882,216380,--,0.588,0.388,-0.768,67.1,96,96.9,3
162885,216401,--,0.573,0.387,-0.760,67.1,96,96.8,3
162894,216396,--,0.573,0.387,-0.760,67.1,96,96.8,3
162908,216402,--,0.573,0.387,-0.760,67.1,96,96.8,3
162911,216405,--,0.563,0.387,-0.756,67.1,96,96.8,3
162913,216406,--,0.563,0.387,-0.756,67.1,96,96.8,3
162923,216418,--,0.563,0.387,-0.756,67.1,96,96.8,3
162918,216408,--,0.551,0.386,-0.752,67.1,96,96.8,3
162917,216406,--,0.530,0.383,-0.746,67.1,96,96.8,3
162899,216384,--,0.508,0.379,-0.744,67.1,96,96.8,3
162897,216390,--,0.494,0.375,-0.742,67.1,96,96.8,3
162887,216377,--,0.481,0.366,-0.738,67.1,96,96.8,3
162895,216377,--,0.453,0.348,-0.737,67.1,96,96.8,3
162887,216392,--,0.453,0.348,-0.737,67.1,96,96.8,3
162894,216385,--,0.453,0.348,-0.737,67.1,96,96.8,3
162889,216381,--,0.453,0.348,-0.737,67.1,96,96.8,3
162898,216388,--,0.415,0.320,-0.750,67.1,96,96.8,3
162898,216387,--,0.415,0.320,-0.750,67.1,96,96.8,3
162909,216397,--,0.415,0.320,-0.750,67.1,96,96.8,3
162911,216395,--,0.405,0.295,-0.766,67.1,96,96.8,3
162932,216399,--,0.405,0.295,-0.766,67.1,96,96.8,3
162928,216401,--,0.405,0.295,-0.766,67.1,96,96.8,3
162949,216410,--,0.442,0.292,-0.768,67.1,96,96.8,3
162959,216408,--,0.442,0.292,-0.768,67.1,96,96.8,3
162958,216419,--,0.510,0.309,-0.755,67.1,96,96.8,3
162977,216433,--,0.579,0.332,-0.738,67.1,96,96.8,3
162988,216432,--,0.632,0.351,-0.729,67.1,96,96.8,3
162981,216451,--,0.670,0.364,-0.733,67.1,96,96.8,3
163003,216453,--,0.695,0.372,-0.744,67.1,96,96.8,3
162992,216460,--,0.695,0.372,-0.744,67.1,96,96.8,3
163005,216449,--,0.695,0.372,-0.744,67.1,96,96.8,3
163003,216449,--,0.700,0.373,-0.751,67.1,96,96.8,3
162995,216446,--,0.700,0.373,-0.751,67.1,96,96.8,3
162999,216443,--,0.700,0.373,-0.751,67.1,96,96.8,3
163005,216435,--,0.687,0.371,-0.752,67.1,96,96.8,3
163008,216425,--,0.687,0.371,-0.752,67.1,96,96.8,3
163001,216436,--,0.687,0.371,-0.752,67.1,96,96.8,3
163010,216422,--,0.687,0.371,-0.752,67.1,96,96.8,3
163020,216430,--,0.674,0.368,-0.756,67.1,96,96.8,3
163013,216445,--,0.674,0.368,-0.756,67.1,96,96.8,3
163029,216435,--,0.674,0.368,-0.756,67.1,96,96.8,3
163042,216460,--,0.661,0.367,-0.767,67.1,96,96.8,3
163042,216454,--,0.647,0.365,-0.778,67.1,96,96.8,3
163038,216451,--,0.639,0.366,-0.783,67.1,96,96.8,3
163036,216450,--,0.630,0.366,-0.780,67.1,96,96.8,3
163038,216451,--,0.618,0.363,-0.772,67.1,96,96.8,3
163057,216451,--,0.608,0.361,-0.764,67.1,96,96.8,3
163053,216457,--,0.608,0.361,-0.764,67.1,96,96.8,3
163050,216449,--,0.608,0.361,-0.764,67.1,96,96.8,3
163063,216443,--,0.595,0.361,-0.757,67.1,96,96.8,3
163057,216449,--,0.595,0.361,-0.757,67.1,96,96.8,3
163062,216449,--,0.595,0.361,-0.757,67.1,96,96.8,3
163068,216457,--,0.595,0.361,-0.757,67.1,96,96.8,3
163073,216467,--,0.578,0.359,-0.754,67.1,96,96.8,3
163078,216468,--,0.578,0.359,-0.754,67.1,96,96.8,3
163087,216455,--,0.578,0.359,-0.754,67.1,96,96.8,3
163094,216461,--,0.561,0.355,-0.758,67.1,95,96.8,3
163091,216462,--,0.561,0.355,-0.758,67.1,95,96.8,3
163101,216460,--,0.548,0.351,-0.763,67.1,95,96.8,3
163117,216457,--,0.540,0.348,-0.764,67.1,95,96.8,3
163125,216466,--,0.534,0.344,-0.765,67.1,95,96.8,3
163133,216473,--,0.527,0.340,-0.768,67.1,95,96.8,3
163158,216484,--,0.523,0.338,-0.770,67.1,95,96.8,3
163156,216469,--,0.523,0.338,-0.770,67.1,95,96.8,3
163162,216490,--,0.524,0.341,-0.769,67.1,95,96.8,3
163169,216489,--,0.524,0.341,-0.769,67.1,95,96.8,3
163169,216482,--,0.524,0.341,-0.769,67.1,95,96.8,3
163157,216479,--,0.524,0.341,-0.769,67.1,95,96.8,3
163144,216471,--,0.527,0.342,-0.766,67.1,95,96.8,3
163104,216447,--,0.527,0.342,-0.766,67.1,95,96.8,3
163053,216423,--,0.527,0.342,-0.766,67.1,95,96.8,3
163011,216387,--,0.531,0.341,-0.766,67.1,95,96.8,3
162941,216361,--,0.531,0.341,-0.766,67.1,95,96.8,3
162897,216332,--,0.531,0.341,-0.766,67.1,95,96.8,3
162843,216292,--,0.532,0.338,-0.768,67.1,95,96.8,3
162793,216258,--,0.534,0.339,-0.768,67.1,95,96.8,3
162766,216234,--,0.537,0.341,-0.766,67.1,95,96.8,3
162748,216235,--,0.540,0.343,-0.764,67.1,95,96.8,3
162734,216230,--,0.543,0.346,-0.762,67.1,95,96.8,3
162725,216225,--,0.547,0.348,-0.762,67.1,95,96.8,3
162721,216219,--,0.547,0.348,-0.762,67.1,95,96.8,3
162728,216227,--,0.547,0.348,-0.762,67.1,95,96.8,3
162734,216225,--,0.547,0.348,-0.762,67.1,95,96.8,3
162738,216232,--,0.557,0.350,-0.766,67.1,95,96.8,3
162750,216224,--,0.557,0.350,-0.766,67.1,95,96.8,3
162728,216224,--,0.557,0.350,-0.766,67.1,95,96.8,3
162736,216209,--,0.570,0.355,-0.774,67.1,95,96.8,3
162741,216207,--,0.570,0.355,-0.774,67.1,95,96.8,3
162737,216207,--,0.570,0.355,-0.774,67.1,95,96.8,3
162736,216197,--,0.578,0.359,-0.781,67.1,95,96.8,3
162738,216197,--,0.578,0.359,-0.781,67.1,95,96.8,3
162738,216197,--,0.578,0.359,-0.781,67.1,95,96.8,3
162742,216193,--,0.574,0.362,-0.783,67.1,95,96.9,3
162750,216213,--,0.563,0.364,-0.782,67.1,95,96.9,3
162762,216214,--,0.551,0.362,-0.780,67.1,95,96.9,3
162780,216216,--,0.544,0.359,-0.781,67.1,95,96.9,3
162780,216222,--,0.552,0.360,-0.790,67.1,95,96.9,3
162787,216231,--,0.580,0.366,-0.804,67.1,95,96.9,3
162783,216230,--,0.580,0.366,-0.804,67.1,95,96.9,3
162778,216216,--,0.580,0.366,-0.804,67.1,95,96.9,3
162789,216207,--,0.580,0.366,-0.804,67.1,95,96.9,3
162784,216198,--,0.616,0.374,-0.814,67.1,95,96.9,3
162774,216191,--,0.616,0.374,-0.814,67.1,95,96.9,3
162772,216185,--,0.616,0.374,-0.814,67.1,95,96.9,3
162765,216177,--,0.629,0.378,-0.810,67.1,95,96.9,3
162768,216182,--,0.629,0.378,-0.810,67.1,95,96.9,3
162768,216188,--,0.629,0.378,-0.810,67.1,95,96.9,3
162767,216190,--,0.616,0.378,-0.794,67.1,95,96.9,3
162763,216179,--,0.616,0.378,-0.794,67.1,95,96.9,3
162774,216168,--,0.590,0.375,-0.780,67.1,95,96.9,3
162768,216171,--,0.558,0.373,-0.769,67.1,95,96.9,3
162775,216176,--,0.529,0.371,-0.759,67.1,95,96.9,3
162785,216172,--,0.505,0.367,-0.754,67.1,95,96.9,3
162816,216187,--,0.492,0.365,-0.755,67.1,95,96.9,3
162811,216189,--,0.492,0.365,-0.755,67.1,95,96.9,3
162833,216192,--,0.492,0.365,-0.755,67.1,95,96.9,3
162834,216203,--,0.486,0.365,-0.754,67.1,95,96.9,3
162852,216196,--,0.486,0.365,-0.754,67.1,95,96.9,3
162868,216203,--,0.486,0.365,-0.754,67.1,95,96.9,3
162866,216202,--,0.483,0.366,-0.749,67.1,95,96.9,3
162882,216212,--,0.483,0.366,-0.749,67.1,95,96.9,3
162884,216205,--,0.483,0.366,-0.749,67.1,95,96.9,3
162895,216221,--,0.483,0.366,-0.749,67.1,95,96.9,3
162913,216216,--,0.482,0.367,-0.744,67.1,95,96.9,3
162919,216222,--,0.482,0.367,-0.744,67.1,95,96.9,3
162935,216244,--,0.482,0.367,-0.744,67.1,95,96.9,3
162945,216235,--,0.483,0.369,-0.746,67.1,95,96.9,3
162951,216248,--,0.489,0.371,-0.755,67.1,95,96.9,3
162948,216253,--,0.508,0.375,-0.767,67.1,95,96.9,3
162963,216248,--,0.526,0.378,-0.774,67.1,95,96.9,3
162969,216251,--,0.527,0.379,-0.773,67.1,95,96.9,3
162960,216249,--,0.518,0.379,-0.770,67.1,95,96.9,3
162966,216249,--,0.518,0.379,-0.770,67.1,95,96.9,3
162975,216258,--,0.518,0.379,-0.770,67.1,95,96.9,3
162991,216265,--,0.518,0.379,-0.770,67.1,95,96.9,3
162979,216263,--,0.511,0.381,-0.771,67.1,95,96.9,3
162983,216267,--,0.511,0.381,-0.771,67.1,95,96.9,3
162991,216273,--,0.511,0.381,-0.771,67.1,95,96.9,3
162992,216267,--,0.507,0.384,-0.778,67.1,95,96.9,3
163003,216277,--,0.507,0.384,-0.778,67.1,95,96.9,3
163010,216276,--,0.507,0.384,-0.778,67.1,95,96.9,3
163018,216290,--,0.506,0.388,-0.785,67.1,95,96.9,3
163018,216282,--,0.506,0.388,-0.785,67.1,95,96.9,3
163036,216289,--,0.508,0.392,-0.793,67.1,95,96.9,3
163042,216297,--,0.506,0.395,-0.798,67.1,95,96.9,3
163048,216293,--,0.507,0.399,-0.801,67.1,95,96.9,3
163060,216301,--,0.505,0.403,-0.799,67.1,95,96.9,3
163073,216320,--,0.492,0.402,-0.791,67.1,95,96.9,3
163086,216317,--,0.492,0.402,-0.791,67.1,95,96.9,3
163093,216326,--,0.492,0.402,-0.791,67.1,95,96.9,3
163105,216333,--,0.474,0.398,-0.788,67.1,95,96.9,3
163119,216344,--,0.474,0.398,-0.788,67.1,95,96.9,3
163130,216347,--,0.474,0.398,-0.788,67.1,95,96.9,3
163139,216349,--,0.456,0.396,-0.793,67.1,95,96.9,3
163150,216355,--,0.456,0.396,-0.793,67.1,95,96.9,3
163149,216374,--,0.456,0.396,-0.793,67.1,95,96.9,3
163154,216374,--,0.456,0.396,-0.793,67.0,95,96.9,3
163165,216376,--,0.439,0.396,-0.798,67.0,95,96.9,3
163175,216387,--,0.439,0.396,-0.798,67.0,95,96.9,3
163177,216378,--,0.417,0.394,-0.795,67.0,95,96.9,3
163160,216364,--,0.391,0.390,-0.788,67.0,95,96.9,3
163130,216356,--,0.355,0.385,-0.782,67.0,95,96.9,3
163088,216344,--,0.320,0.380,-0.781,67.0,95,96.9,3
163026,216297,--,0.311,0.378,-0.793,67.0,95,96.9,3
162963,216254,--,0.311,0.378,-0.793,67.0,95,96.9,3
162912,216237,--,0.329,0.379,-0.810,67.0,95,96.9,3
162867,216207,--,0.329,0.379,-0.810,67.0,95,96.9,3
162844,216205,--,0.329,0.379,-0.810,67.0,95,96.9,3
162813,216187,--,0.362,0.380,-0.818,67.0,95,96.9,3
162801,216191,--,0.362,0.380,-0.818,67.0,95,96.9,3
162808,216185,--,0.362,0.380,-0.818,67.0,95,96.9,3
162821,216196,--,0.401,0.383,-0.814,67.0,95,96.9,3
162830,216208,--,0.401,0.383,-0.814,67.0,95,96.9,3
162842,216207,--,0.401,0.383,-0.814,67.0,95,96.9,3
162844,216219,--,0.401,0.383,-0.814,67.0,95,96.9,3
162850,216217,--,0.437,0.384,-0.800,67.0,95,96.9,3
162857,216215,--,0.437,0.384,-0.800,67.0,95,96.9,3
162856,216215,--,0.459,0.383,-0.785,67.0,95,96.9,3
162855,216205,--,0.481,0.384,-0.783,67.0,95,96.9,3
162851,216223,--,0.514,0.386,-0.794,67.0,95,96.9,3
162858,216223,--,0.546,0.389,-0.801,67.0,95,96.9,3
162845,216216,--,0.562,0.389,-0.795,67.0,95,96.9,3
162857,216228,--,0.562,0.389,-0.795,67.0,95,96.9,3
162857,216233,--,0.559,0.386,-0.773,67.0,95,96.9,3
162869,216232,--,0.559,0.386,-0.773,67.0,95,96.8,3
162876,216236,--,0.559,0.386,-0.773,67.0,95,96.8,3
162887,216229,--,0.547,0.382,-0.743,67.0,95,96.8,3
162892,216232,--,0.547,0.382,-0.743,67.0,95,96.8,3
162894,216229,--,0.547,0.382,-0.743,67.0,95,96.8,3
162896,216223,--,0.546,0.380,-0.729,67.0,95,96.8,3
162890,216232,--,0.546,0.380,-0.729,67.0,95,96.8,3
162895,216211,--,0.546,0.380,-0.729,67.0,95,96.8,3
162882,216214,--,0.546,0.380,-0.729,67.0,95,96.8,3
162886,216209,--,0.565,0.380,-0.741,67.0,95,96.8,3
162883,216204,--,0.591,0.381,-0.762,67.0,95,96.8,3
162894,216214,--,0.614,0.381,-0.777,67.0,95,96.8,3
162889,216205,--,0.631,0.381,-0.777,67.0,95,96.8,3
162889,216207,--,0.640,0.380,-0.763,67.0,95,96.8,3
162881,216202,--,0.636,0.377,-0.739,67.0,95,96.8,3
162893,216195,--,0.636,0.377,-0.739,67.0,95,96.8,3
162883,216194,--,0.636,0.377,-0.739,67.0,95,96.8,3
162895,216207,--,0.636,0.377,-0.739,67.0,95,96.8,3
162890,216195,--,0.623,0.371,-0.720,67.0,95,96.8,3
162905,216206,--,0.623,0.371,-0.720,67.0,95,96.8,3
162910,216213,--,0.623,0.371,-0.720,67.0,95,96.8,3
162910,216214,--,0.612,0.364,-0.718,67.0,95,96.8,3
162924,216223,--,0.612,0.364,-0.718,67.0,95,96.8,3
162932,216225,--,0.612,0.364,-0.718,67.0,95,96.8,3
162934,216237,--,0.604,0.357,-0.723,67.0,95,96.8,3
162943,216234,--,0.604,0.357,-0.723,67.0,95,96.8,3
162965,216227,--,0.604,0.357,-0.723,67.0,95,96.8,3
162976,216245,--,0.596,0.349,-0.724,67.0,95,96.8,3
162973,216237,--,0.593,0.341,-0.722,67.0,95,96.8,3
162982,216239,--,0.598,0.338,-0.721,67.0,95,96.8,3
162980,216247,--,0.621,0.346,-0.728,67.0,95,96.8,3
162986,216252,--,0.659,0.359,-0.735,67.0,95,96.8,3
162996,216253,--,0.659,0.359,-0.735,67.0,95,96.8,3
162993,216243,--,0.691,0.366,-0.733,67.0,95,96.8,3
163007,216254,--,0.691,0.366,-0.733,67.0,95,96.8,3
163006,216257,--,0.691,0.366,-0.733,67.0,95,96.8,3
162998,216257,--,0.708,0.370,-0.723,67.0,95,96.8,3
163010,216248,--,0.708,0.370,-0.723,67.0,95,96.8,3
163006,216251,--,0.708,0.370,-0.723,67.0,95,96.8,3
163005,216242,--,0.707,0.371,-0.710,67.0,95,96.8,3
163012,216259,--,0.707,0.371,-0.710,67.0,95,96.8,3
163018,216244,--,0.707,0.371,-0.710,67.0,95,96.8,3
163018,216251,--,0.707,0.371,-0.710,67.0,95,96.8,3
163029,216255,--,0.690,0.368,-0.695,67.0,95,96.8,3
163030,216266,--,0.662,0.363,-0.686,67.0,95,96.8,3
163026,216265,--,0.637,0.360,-0.689,67.0,95,96.8,3
163049,216278,--,0.622,0.360,-0.692,67.0,95,96.8,3
163044,216273,--,0.614,0.359,-0.695,67.0,95,96.8,3
163052,216265,--,0.608,0.356,-0.699,67.0,95,96.8,3
163057,216275,--,0.608,0.356,-0.699,67.0,95,96.8,3
163056,216270,--,0.608,0.356,-0.699,67.0,95,96.8,3
163069,216275,--,0.603,0.352,-0.697,67.0,95,96.8,3
163065,216276,--,0.603,0.352,-0.697,67.0,95,96.8,3
163072,216283,--,0.603,0.352,-0.697,67.0,95,96.8,3
163088,216281,--,0.603,0.352,-0.689,67.0,95,96.8,3
163090,216278,--,0.603,0.352,-0.689,67.0,95,96.8,3
163086,216277,--,0.603,0.352,-0.689,67.0,95,96.8,3
163093,216275,--,0.603,0.352,-0.689,67.0,95,96.8,3
163107,216275,--,0.604,0.353,-0.681,67.0,95,96.8,3
163105,216290,--,0.604,0.353,-0.681,67.0,95,96.8,3
163120,216288,--,0.604,0.353,-0.681,67.0,95,96.8,3
163132,216287,--,0.604,0.347,-0.675,67.0,95,96.8,3
163142,216294,--,0.604,0.342,-0.674,67.0,95,96.8,3
163148,216301,--,0.606,0.342,-0.674,67.0,95,96.8,3
163150,216290,--,0.608,0.345,-0.675,67.0,95,96.8,3
163151,216297,--,0.608,0.348,-0.675,67.0,95,96.8,3
163158,216296,--,0.611,0.352,-0.673,67.0,95,96.8,3
163155,216299,--,0.611,0.352,-0.673,67.0,95,96.8,3
163155,216291,--,0.611,0.352,-0.673,67.0,95,96.8,3
163143,216286,--,0.616,0.357,-0.674,67.0,95,96.8,3
163110,216261,--,0.616,0.357,-0.674,67.0,95,96.8,3
163059,216231,--,0.616,0.357,-0.674,67.0,95,96.8,3
163011,216187,--,0.616,0.357,-0.674,67.0,94,96.8,3
162959,216167,--,0.621,0.360,-0.680,67.0,94,96.8,3
162915,216130,--,0.621,0.360,-0.680,67.0,94,96.8,3
162870,216115,--,0.629,0.362,-0.684,67.0,94,96.8,3
162827,216090,--,0.629,0.362,-0.684,67.0,94,96.8,3
162796,216076,--,0.629,0.362,-0.684,67.0,94,96.8,3
162783,216062,--,0.635,0.362,-0.685,67.0,94,96.8,3
162762,216048,--,0.631,0.358,-0.687,67.0,94,96.8,3
162782,216059,--,0.624,0.355,-0.690,67.0,94,96.8,3
162790,216066,--,0.622,0.356,-0.693,67.0,94,96.8,3
162787,216069,--,0.624,0.359,-0.695,67.0,94,96.8,3
162806,216074,--,0.624,0.359,-0.695,67.0,94,96.8,3
162811,216083,--,0.624,0.359,-0.695,67.0,94,96.8,3
162826,216083,--,0.626,0.361,-0.693,67.0,94,96.8,3
162820,216068,--,0.626,0.361,-0.693,67.0,94,96.8,3
162832,216076,--,0.626,0.361,-0.693,67.0,94,96.8,3
162831,216083,--,0.630,0.363,-0.690,67.0,94,96.8,3
162830,216078,--,0.630,0.363,-0.690,67.0,94,96.8,3
162827,216080,--,0.630,0.363,-0.690,67.0,94,96.8,3
162830,216080,--,0.647,0.368,-0.692,67.0,94,96.8,3
162830,216078,--,0.647,0.368,-0.692,67.0,94,96.8,3
162843,216071,--,0.647,0.368,-0.692,67.0,94,96.8,3
162849,216086,--,0.647,0.368,-0.692,67.0,94,96.8,3
162856,216084,--,0.665,0.371,-0.699,67.0,94,96.8,3
162874,216087,--,0.675,0.372,-0.705,67.0,94,96.8,3
162860,216086,--,0.678,0.372,-0.705,67.0,94,96.8,3
162878,216079,--,0.676,0.371,-0.701,67.0,94,96.8,3
162868,216080,--,0.670,0.366,-0.697,67.0,94,96.8,3
162874,216082,--,0.662,0.362,-0.693,67.0,94,96.8,3
162858,216070,--,0.662,0.362,-0.693,67.0,94,96.8,3
162861,216071,--,0.662,0.362,-0.693,67.0,94,96.8,3
162850,216063,--,0.656,0.359,-0.689,67.0,94,96.8,3
162857,216057,--,0.656,0.359,-0.689,67.0,94,96.8,3
162844,216057,--,0.656,0.359,-0.689,67.0,94,96.8,3
162850,216065,--,0.653,0.356,-0.683,67.0,94,96.8,3
162850,216058,--,0.653,0.356,-0.683,67.0,94,96.8,3
162853,216056,--,0.653,0.356,-0.683,67.0,94,96.8,3
162860,216064,--,0.653,0.356,-0.683,67.0,94,96.8,3
162867,216062,--,0.651,0.354,-0.678,67.0,94,96.8,3
162879,216072,--,0.651,0.354,-0.678,67.0,94,96.8,3
162880,216081,--,0.648,0.353,-0.674,67.0,94,96.8,3
162888,216087,--,0.644,0.354,-0.670,67.0,94,96.8,3
162902,216097,--,0.641,0.357,-0.666,67.0,94,96.8,3
162907,216089,--,0.636,0.359,-0.665,67.0,94,96.8,3
162912,216090,--,0.629,0.358,-0.664,67.0,94,96.8,3
162926,216104,--,0.629,0.358,-0.664,67.0,94,96.8,3
162934,216105,--,0.627,0.358,-0.668,67.0,94,96.8,3
162950,216109,--,0.627,0.358,-0.668,67.0,94,96.8,3
162945,216117,--,0.627,0.358,-0.668,67.0,94,96.8,3
162957,216113,--,0.629,0.358,-0.674,67.0,94,96.8,3
162955,216111,--,0.629,0.358,-0.674,67.0,94,96.8,3
162967,216114,--,0.629,0.358,-0.674,67.0,94,96.8,3
162970,216107,--,0.629,0.358,-0.674,67.0,94,96.8,3
162981,216113,--,0.626,0.357,-0.676,67.0,94,96.8,3
162985,216116,--,0.626,0.357,-0.676,67.0,94,96.8,3
162987,216112,--,0.626,0.357,-0.676,67.0,94,96.8,3
162992,216121,--,0.618,0.354,-0.675,67.0,94,96.8,3
162997,216120,--,0.612,0.352,-0.673,67.0,94,96.8,3
163000,216130,--,0.612,0.352,-0.674,67.0,94,96.8,3
162998,216133,--,0.615,0.354,-0.682,67.0,94,96.8,3
162999,216132,--,0.620,0.355,-0.687,67.0,94,96.8,3
163012,216119,--,0.625,0.355,-0.688,67.0,94,96.8,3
163017,216136,--,0.625,0.355,-0.688,67.0,94,96.8,3
163018,216126,--,0.625,0.355,-0.688,67.0,94,96.8,3
163030,216130,--,0.636,0.356,-0.690,67.0,94,96.8,3
163032,216127,--,0.636,0.356,-0.690,67.0,94,96.8,3
163033,216142,--,0.636,0.356,-0.690,67.0,94,96.8,3
163033,216129,--,0.636,0.356,-0.690,67.0,94,96.8,3
163038,216144,--,0.650,0.360,-0.690,67.0,94,96.8,3
163039,216129,--,0.650,0.360,-0.690,67.0,94,96.8,3
163042,216139,--,0.650,0.360,-0.690,67.0,94,96.8,3
163046,216147,--,0.657,0.363,-0.686,67.0,94,96.8,3
163058,216140,--,0.657,0.363,-0.686,67.0,94,96.8,3
163056,216146,--,0.657,0.363,-0.686,67.0,94,96.8,3
163081,216150,--,0.656,0.364,-0.679,67.0,94,96.8,3
163073,216156,--,0.654,0.364,-0.673,67.0,94,96.8,3
163077,216152,--,0.648,0.363,-0.674,67.0,94,96.8,3
163077,216148,--,0.643,0.361,-0.682,67.0,94,96.8,3
163090,216164,--,0.644,0.360,-0.689,67.0,94,96.8,3
163103,216170,--,0.644,0.360,-0.689,67.0,94,96.8,3
163096,216174,--,0.645,0.359,-0.693,67.0,94,96.8,3
