Auto Gain Control OFF,IR PA (mA)=10,Red PA (mA)=10,Sample Rate (Hz)=100,Pulse Width (usec)=400,FIFO Almost Full=17,FIFO Rolls on Full=Not Checked,Sample Averaging=2
IR Count, Red Count, Green Count, X Axis Acceleration, Y Axis Acceleration, Z Axis Acceleration, Heart Rate, HR Confidence, SPO2, Algorithm Status
Auto Gain Control OFF,IR PA (mA)=10,Red PA (mA)=10,Sample Rate (Hz)=1600,Pulse Width (usec)=400,FIFO Almost Full=17,FIFO Rolls on Full=Not Checked,Sample Averaging=2
IR Count, Red Count, Green Count, X Axis Acceleration, Y Axis Acceleration, Z Axis Acceleration, Heart Rate, HR Confidence, SPO2, Algorithm Status
179,269,--,0.000,0.000,0.000,0.0,0,0.0,0
231,346,--,0.000,0.000,0.000,0.0,0,0.0,0
178,275,--,0.000,0.000,0.000,0.0,0,0.0,0
231,347,--,0.000,0.000,0.000,0.0,0,0.0,0
176,270,--,0.000,0.000,0.000,0.0,0,0.0,0
230,346,--,0.000,0.000,0.000,0.0,0,0.0,0
176,274,--,0.000,0.000,0.000,0.0,0,0.0,0
228,344,--,0.000,0.000,0.000,0.0,0,0.0,0
177,272,--,0.000,0.000,0.000,0.0,0,0.0,0
233,350,--,0.000,0.000,0.000,0.0,0,0.0,0
178,275,--,0.000,0.000,0.000,0.0,0,0.0,0
231,347,--,0.000,0.000,0.000,0.0,0,0.0,0
180,276,--,0.000,0.000,0.000,0.0,0,0.0,0
228,349,--,0.000,0.000,0.000,0.0,0,0.0,0
179,274,--,0.000,0.000,0.000,0.0,0,0.0,0
226,345,--,0.000,0.000,0.000,0.0,0,0.0,0
181,275,--,0.000,0.000,0.000,0.0,0,0.0,0
229,346,--,0.000,0.000,0.000,0.0,0,0.0,0
183,271,--,0.000,0.000,0.000,0.0,0,0.0,0
225,344,--,0.000,0.000,0.000,0.0,0,0.0,0
183,272,--,0.000,0.000,0.000,0.0,0,0.0,0
230,343,--,0.000,0.000,0.000,0.0,0,0.0,0
184,273,--,0.000,0.000,0.000,0.0,0,0.0,0
226,345,--,0.000,0.000,0.000,0.0,0,0.0,0
187,273,--,0.000,0.000,0.000,0.0,0,0.0,0
227,343,--,0.000,0.000,0.000,0.0,0,0.0,0
182,273,--,0.000,0.000,0.000,0.0,0,0.0,0
226,343,--,0.000,0.000,0.000,0.0,0,0.0,0
187,275,--,0.000,0.000,0.000,0.0,0,0.0,0
227,340,--,0.000,0.000,0.000,0.0,0,0.0,0
184,273,--,0.000,0.000,0.000,0.0,0,0.0,0
224,345,--,0.000,0.000,0.000,0.0,0,0.0,0
187,272,--,0.000,0.000,0.000,0.0,0,0.0,0
226,342,--,0.000,0.000,0.000,0.0,0,0.0,0
185,273,--,0.000,0.000,0.000,0.0,0,0.0,0
221,341,--,0.000,0.000,0.000,0.0,0,0.0,0
185,277,--,0.000,0.000,0.000,0.0,0,0.0,0
224,345,--,0.000,0.000,0.000,0.0,0,0.0,0
182,277,--,0.000,0.000,0.000,0.0,0,0.0,0
224,341,--,0.000,0.000,0.000,0.0,0,0.0,0
185,277,--,0.000,0.000,0.000,0.0,0,0.0,0
224,342,--,0.000,0.000,0.000,0.0,0,0.0,0
186,275,--,0.000,0.000,0.000,0.0,0,0.0,0
222,339,--,0.000,0.000,0.000,0.0,0,0.0,0
184,275,--,0.000,0.000,0.000,0.0,0,0.0,0
222,344,--,0.000,0.000,0.000,0.0,0,0.0,0
186,276,--,0.000,0.000,0.000,0.0,0,0.0,0
221,339,--,0.000,0.000,0.000,0.0,0,0.0,0
188,276,--,0.000,0.000,0.000,0.0,0,0.0,0
221,344,--,0.000,0.000,0.000,0.0,0,0.0,0
187,277,--,0.000,0.000,0.000,0.0,0,0.0,0
218,338,--,0.000,0.000,0.000,0.0,0,0.0,0
185,278,--,0.000,0.000,0.000,0.0,0,0.0,0
216,341,--,0.000,0.000,0.000,0.0,0,0.0,0
192,278,--,0.000,0.000,0.000,0.0,0,0.0,0
220,340,--,0.000,0.000,0.000,0.0,0,0.0,0
189,278,--,0.000,0.000,0.000,0.0,0,0.0,0
215,339,--,0.000,0.000,0.000,0.0,0,0.0,0
191,279,--,0.000,0.000,0.000,0.0,0,0.0,0
216,336,--,0.000,0.000,0.000,0.0,0,0.0,0
190,276,--,0.000,0.000,0.000,0.0,0,0.0,0
219,338,--,0.000,0.000,0.000,0.0,0,0.0,0
188,278,--,0.000,0.000,0.000,0.0,0,0.0,0
217,337,--,0.000,0.000,0.000,0.0,0,0.0,0
187,279,--,0.000,0.000,0.000,0.0,0,0.0,0
218,337,--,0.000,0.000,0.000,0.0,0,0.0,0
191,282,--,0.000,0.000,0.000,0.0,0,0.0,0
217,332,--,0.000,0.000,0.000,0.0,0,0.0,0
192,280,--,0.000,0.000,0.000,0.0,0,0.0,0
218,334,--,0.000,0.000,0.000,0.0,0,0.0,0
189,279,--,0.000,0.000,0.000,0.0,0,0.0,0
214,334,--,0.000,0.000,0.000,0.0,0,0.0,0
189,279,--,0.000,0.000,0.000,0.0,0,0.0,0
213,333,--,0.000,0.000,0.000,0.0,0,0.0,0
193,278,--,0.000,0.000,0.000,0.0,0,0.0,0
216,333,--,0.000,0.000,0.000,0.0,0,0.0,0
193,282,--,0.000,0.000,0.000,0.0,0,0.0,0
215,332,--,0.000,0.000,0.000,0.0,0,0.0,0
192,280,--,0.000,0.000,0.000,0.0,0,0.0,0
215,335,--,0.000,0.000,0.000,0.0,0,0.0,0
194,282,--,0.000,0.000,0.000,0.0,0,0.0,0
215,332,--,0.000,0.000,0.000,0.0,0,0.0,0
192,281,--,0.000,0.000,0.000,0.0,0,0.0,0
213,334,--,0.000,0.000,0.000,0.0,0,0.0,0
190,283,--,0.000,0.000,0.000,0.0,0,0.0,0
214,337,--,0.000,0.000,0.000,0.0,0,0.0,0
197,282,--,0.000,0.000,0.000,0.0,0,0.0,0
210,332,--,0.000,0.000,0.000,0.0,0,0.0,0
195,284,--,0.000,0.000,0.000,0.0,0,0.0,0
210,331,--,0.000,0.000,0.000,0.0,0,0.0,0
193,284,--,0.000,0.000,0.000,0.0,0,0.0,0
210,331,--,0.000,0.000,0.000,0.0,0,0.0,0
199,284,--,0.000,0.000,0.000,0.0,0,0.0,0
209,330,--,0.000,0.000,0.000,0.0,0,0.0,0
197,285,--,0.000,0.000,0.000,0.0,0,0.0,0
212,330,--,0.000,0.000,0.000,0.0,0,0.0,0
198,286,--,0.000,0.000,0.000,0.0,0,0.0,0
210,331,--,0.000,0.000,0.000,0.0,0,0.0,0
196,284,--,0.000,0.000,0.000,0.0,0,0.0,0
210,331,--,0.000,0.000,0.000,0.0,0,0.0,0
197,285,--,0.000,0.000,0.000,0.0,0,0.0,0
211,329,--,0.000,0.000,0.000,0.0,0,0.0,0
198,288,--,0.000,0.000,0.000,0.0,0,0.0,0
213,331,--,0.000,0.000,0.000,0.0,0,0.0,0
199,291,--,0.000,0.000,0.000,0.0,0,0.0,0
215,331,--,0.000,0.000,0.000,0.0,0,0.0,0
200,290,--,0.000,0.000,0.000,0.0,0,0.0,0
206,325,--,0.000,0.000,0.000,0.0,0,0.0,0
199,287,--,0.000,0.000,0.000,0.0,0,0.0,0
208,327,--,0.000,0.000,0.000,0.0,0,0.0,0
202,291,--,0.000,0.000,0.000,0.0,0,0.0,0
210,325,--,0.000,0.000,0.000,0.0,0,0.0,0
200,286,--,0.000,0.000,0.000,0.0,0,0.0,0
208,326,--,0.000,0.000,0.000,0.0,0,0.0,0
199,291,--,0.000,0.000,0.000,0.0,0,0.0,0
206,325,--,0.000,0.000,0.000,0.0,0,0.0,0
204,288,--,0.000,0.000,0.000,0.0,0,0.0,0
207,326,--,0.000,0.000,0.000,0.0,0,0.0,0
200,292,--,0.000,0.000,0.000,0.0,0,0.0,0
207,327,--,0.000,0.000,0.000,0.0,0,0.0,0
202,292,--,0.000,0.000,0.000,0.0,0,0.0,0
207,325,--,0.000,0.000,0.000,0.0,0,0.0,0
203,293,--,0.000,0.000,0.000,0.0,0,0.0,0
205,326,--,0.000,0.000,0.000,0.0,0,0.0,0
201,294,--,0.000,0.000,0.000,0.0,0,0.0,0
203,323,--,0.000,0.000,0.000,0.0,0,0.0,0
206,293,--,0.000,0.000,0.000,0.0,0,0.0,0
205,323,--,0.000,0.000,0.000,0.0,0,0.0,0
205,293,--,0.000,0.000,0.000,0.0,0,0.0,0
202,323,--,0.000,0.000,0.000,0.0,0,0.0,0
208,297,--,0.000,0.000,0.000,0.0,0,0.0,0
203,321,--,0.000,0.000,0.000,0.0,0,0.0,0
206,296,--,0.000,0.000,0.000,0.0,0,0.0,0
200,323,--,0.000,0.000,0.000,0.0,0,0.0,0
206,295,--,0.000,0.000,0.000,0.0,0,0.0,0
202,323,--,0.000,0.000,0.000,0.0,0,0.0,0
209,293,--,0.000,0.000,0.000,0.0,0,0.0,0
204,319,--,0.000,0.000,0.000,0.0,0,0.0,0
210,296,--,0.000,0.000,0.000,0.0,0,0.0,0
203,322,--,0.000,0.000,0.000,0.0,0,0.0,0
209,297,--,0.000,0.000,0.000,0.0,0,0.0,0
201,324,--,0.000,0.000,0.000,0.0,0,0.0,0
215,294,--,0.000,0.000,0.000,0.0,0,0.0,0
199,321,--,0.000,0.000,0.000,0.0,0,0.0,0
212,295,--,0.000,0.000,0.000,0.0,0,0.0,0
201,321,--,0.000,0.000,0.000,0.0,0,0.0,0
212,295,--,0.000,0.000,0.000,0.0,0,0.0,0
197,318,--,0.000,0.000,0.000,0.0,0,0.0,0
212,296,--,0.000,0.000,0.000,0.0,0,0.0,0
197,320,--,0.000,0.000,0.000,0.0,0,0.0,0
213,301,--,0.000,0.000,0.000,0.0,0,0.0,0
199,321,--,0.000,0.000,0.000,0.0,0,0.0,0
214,301,--,0.000,0.000,0.000,0.0,0,0.0,0
198,319,--,0.000,0.000,0.000,0.0,0,0.0,0
213,298,--,0.000,0.000,0.000,0.0,0,0.0,0
197,318,--,0.000,0.000,0.000,0.0,0,0.0,0
215,297,--,0.000,0.000,0.000,0.0,0,0.0,0
197,319,--,0.000,0.000,0.000,0.0,0,0.0,0
213,301,--,0.000,0.000,0.000,0.0,0,0.0,0
196,318,--,0.000,0.000,0.000,0.0,0,0.0,0
214,299,--,0.000,0.000,0.000,0.0,0,0.0,0
194,319,--,0.000,0.000,0.000,0.0,0,0.0,0
216,300,--,0.000,0.000,0.000,0.0,0,0.0,0
196,314,--,0.000,0.000,0.000,0.0,0,0.0,0
215,300,--,0.000,0.000,0.000,0.0,0,0.0,0
193,319,--,0.000,0.000,0.000,0.0,0,0.0,0
215,302,--,0.000,0.000,0.000,0.0,0,0.0,0
195,316,--,0.000,0.000,0.000,0.0,0,0.0,0
220,296,--,0.000,0.000,0.000,0.0,0,0.0,0
193,316,--,0.000,0.000,0.000,0.0,0,0.0,0
218,297,--,0.000,0.000,0.000,0.0,0,0.0,0
192,315,--,0.000,0.000,0.000,0.0,0,0.0,0
219,303,--,0.000,0.000,0.000,0.0,0,0.0,0
192,316,--,0.000,0.000,0.000,0.0,0,0.0,0
218,304,--,0.000,0.000,0.000,0.0,0,0.0,0
192,313,--,0.000,0.000,0.000,0.0,0,0.0,0
221,302,--,0.000,0.000,0.000,0.0,0,0.0,0
194,316,--,0.000,0.000,0.000,0.0,0,0.0,0
220,302,--,0.000,0.000,0.000,0.0,0,0.0,0
189,313,--,0.000,0.000,0.000,0.0,0,0.0,0
220,303,--,0.000,0.000,0.000,0.0,0,0.0,0
190,313,--,0.000,0.000,0.000,0.0,0,0.0,0
220,305,--,0.000,0.000,0.000,0.0,0,0.0,0
191,314,--,0.000,0.000,0.000,0.0,0,0.0,0
223,301,--,0.000,0.000,0.000,0.0,0,0.0,0
189,311,--,0.000,0.000,0.000,0.0,0,0.0,0
220,303,--,0.000,0.000,0.000,0.0,0,0.0,0
189,312,--,0.000,0.000,0.000,0.0,0,0.0,0
220,307,--,0.000,0.000,0.000,0.0,0,0.0,0
188,310,--,0.000,0.000,0.000,0.0,0,0.0,0
221,303,--,0.000,0.000,0.000,0.0,0,0.0,0
187,306,--,0.000,0.000,0.000,0.0,0,0.0,0
222,304,--,0.000,0.000,0.000,0.0,0,0.0,0
185,311,--,0.000,0.000,0.000,0.0,0,0.0,0
223,307,--,0.000,0.000,0.000,0.0,0,0.0,0
187,310,--,0.000,0.000,0.000,0.0,0,0.0,0
225,306,--,0.000,0.000,0.000,0.0,0,0.0,0
187,307,--,0.000,0.000,0.000,0.0,0,0.0,0
224,305,--,0.000,0.000,0.000,0.0,0,0.0,0
187,307,--,0.000,0.000,0.000,0.0,0,0.0,0
223,312,--,0.000,0.000,0.000,0.0,0,0.0,0
184,308,--,0.000,0.000,0.000,0.0,0,0.0,0
224,310,--,0.000,0.000,0.000,0.0,0,0.0,0
183,305,--,0.000,0.000,0.000,0.0,0,0.0,0
225,312,--,0.000,0.000,0.000,0.0,0,0.0,0
185,308,--,0.000,0.000,0.000,0.0,0,0.0,0
223,309,--,0.000,0.000,0.000,0.0,0,0.0,0
185,309,--,0.000,0.000,0.000,0.0,0,0.0,0
223,311,--,0.000,0.000,0.000,0.0,0,0.0,0
183,303,--,0.000,0.000,0.000,0.0,0,0.0,0
227,315,--,0.000,0.000,0.000,0.0,0,0.0,0
180,302,--,0.000,0.000,0.000,0.0,0,0.0,0
228,315,--,0.000,0.000,0.000,0.0,0,0.0,0
182,303,--,0.000,0.000,0.000,0.0,0,0.0,0
228,315,--,0.000,0.000,0.000,0.0,0,0.0,0
180,305,--,0.000,0.000,0.000,0.0,0,0.0,0
230,314,--,0.000,0.000,0.000,0.0,0,0.0,0
183,302,--,0.000,0.000,0.000,0.0,0,0.0,0
228,315,--,0.000,0.000,0.000,0.0,0,0.0,0
181,301,--,0.000,0.000,0.000,0.0,0,0.0,0
226,315,--,0.000,0.000,0.000,0.0,0,0.0,0
180,300,--,0.000,0.000,0.000,0.0,0,0.0,0
229,313,--,0.000,0.000,0.000,0.0,0,0.0,0
182,303,--,0.000,0.000,0.000,0.0,0,0.0,0
229,318,--,0.000,0.000,0.000,0.0,0,0.0,0
175,301,--,0.000,0.000,0.000,0.0,0,0.0,0
232,315,--,0.000,0.000,0.000,0.0,0,0.0,0
180,299,--,0.000,0.000,0.000,0.0,0,0.0,0
230,317,--,0.000,0.000,0.000,0.0,0,0.0,0
180,299,--,0.000,0.000,0.000,0.0,0,0.0,0
230,319,--,0.000,0.000,0.000,0.0,0,0.0,0
179,298,--,0.000,0.000,0.000,0.0,0,0.0,0
232,319,--,0.000,0.000,0.000,0.0,0,0.0,0
180,299,--,0.000,0.000,0.000,0.0,0,0.0,0
232,322,--,0.000,0.000,0.000,0.0,0,0.0,0
176,302,--,0.000,0.000,0.000,0.0,0,0.0,0
234,320,--,0.000,0.000,0.000,0.0,0,0.0,0
172,298,--,0.000,0.000,0.000,0.0,0,0.0,0
231,316,--,0.000,0.000,0.000,0.0,0,0.0,0
176,299,--,0.000,0.000,0.000,0.0,0,0.0,0
228,321,--,0.000,0.000,0.000,0.0,0,0.0,0
176,298,--,0.000,0.000,0.000,0.0,0,0.0,0
234,316,--,0.000,0.000,0.000,0.0,0,0.0,0
175,297,--,0.000,0.000,0.000,0.0,0,0.0,0
232,324,--,0.000,0.000,0.000,0.0,0,0.0,0
174,297,--,0.000,0.000,0.000,0.0,0,0.0,0
235,324,--,0.000,0.000,0.000,0.0,0,0.0,0
175,295,--,0.000,0.000,0.000,0.0,0,0.0,0
234,320,--,0.000,0.000,0.000,0.0,0,0.0,0
175,295,--,0.000,0.000,0.000,0.0,0,0.0,0
234,322,--,0.000,0.000,0.000,0.0,0,0.0,0
176,297,--,0.000,0.000,0.000,0.0,0,0.0,0
237,322,--,0.000,0.000,0.000,0.0,0,0.0,0
172,293,--,0.000,0.000,0.000,0.0,0,0.0,0
235,322,--,0.000,0.000,0.000,0.0,0,0.0,0
175,297,--,0.000,0.000,0.000,0.0,0,0.0,0
233,325,--,0.000,0.000,0.000,0.0,0,0.0,0
174,294,--,0.000,0.000,0.000,0.0,0,0.0,0
237,321,--,0.000,0.000,0.000,0.0,0,0.0,0
175,291,--,0.000,0.000,0.000,0.0,0,0.0,0
235,324,--,0.000,0.000,0.000,0.0,0,0.0,0
173,290,--,0.000,0.000,0.000,0.0,0,0.0,0
235,326,--,0.000,0.000,0.000,0.0,0,0.0,0
169,292,--,0.000,0.000,0.000,0.0,0,0.0,0
236,323,--,0.000,0.000,0.000,0.0,0,0.0,0
171,293,--,0.000,0.000,0.000,0.0,0,0.0,0
243,325,--,0.000,0.000,0.000,0.0,0,0.0,0
172,292,--,0.000,0.000,0.000,0.0,0,0.0,0
238,326,--,0.000,0.000,0.000,0.0,0,0.0,0
173,289,--,0.000,0.000,0.000,0.0,0,0.0,0
235,325,--,0.000,0.000,0.000,0.0,0,0.0,0
169,287,--,0.000,0.000,0.000,0.0,0,0.0,0
233,327,--,0.000,0.000,0.000,0.0,0,0.0,0
169,289,--,0.000,0.000,0.000,0.0,0,0.0,0
239,325,--,0.000,0.000,0.000,0.0,0,0.0,0
172,289,--,0.000,0.000,0.000,0.0,0,0.0,0
242,330,--,0.000,0.000,0.000,0.0,0,0.0,0
168,288,--,0.000,0.000,0.000,0.0,0,0.0,0
240,328,--,0.000,0.000,0.000,0.0,0,0.0,0
170,290,--,0.000,0.000,0.000,0.0,0,0.0,0
241,327,--,0.000,0.000,0.000,0.0,0,0.0,0
166,286,--,0.000,0.000,0.000,0.0,0,0.0,0
239,329,--,0.000,0.000,0.000,0.0,0,0.0,0
172,284,--,0.000,0.000,0.000,0.0,0,0.0,0
240,330,--,0.000,0.000,0.000,0.0,0,0.0,0
170,285,--,0.000,0.000,0.000,0.0,0,0.0,0
243,329,--,0.000,0.000,0.000,0.0,0,0.0,0
168,287,--,0.000,0.000,0.000,0.0,0,0.0,0
243,332,--,0.000,0.000,0.000,0.0,0,0.0,0
167,285,--,0.000,0.000,0.000,0.0,0,0.0,0
241,330,--,0.000,0.000,0.000,0.0,0,0.0,0
165,287,--,0.000,0.000,0.000,0.0,0,0.0,0
242,331,--,0.000,0.000,0.000,0.0,0,0.0,0
167,284,--,0.000,0.000,0.000,0.0,0,0.0,0
244,334,--,0.000,0.000,0.000,0.0,0,0.0,0
163,286,--,0.000,0.000,0.000,0.0,0,0.0,0
243,331,--,0.000,0.000,0.000,0.0,0,0.0,0
165,285,--,0.000,0.000,0.000,0.0,0,0.0,0
242,330,--,0.000,0.000,0.000,0.0,0,0.0,0
167,286,--,0.000,0.000,0.000,0.0,0,0.0,0
243,337,--,0.000,0.000,0.000,0.0,0,0.0,0
164,286,--,0.000,0.000,0.000,0.0,0,0.0,0
242,335,--,0.000,0.000,0.000,0.0,0,0.0,0
166,281,--,0.000,0.000,0.000,0.0,0,0.0,0
242,335,--,0.000,0.000,0.000,0.0,0,0.0,0
162,282,--,0.000,0.000,0.000,0.0,0,0.0,0
246,336,--,0.000,0.000,0.000,0.0,0,0.0,0
164,283,--,0.000,0.000,0.000,0.0,0,0.0,0
245,336,--,0.000,0.000,0.000,0.0,0,0.0,0
163,286,--,0.000,0.000,0.000,0.0,0,0.0,0
241,339,--,0.000,0.000,0.000,0.0,0,0.0,0
168,280,--,0.000,0.000,0.000,0.0,0,0.0,0
243,334,--,0.000,0.000,0.000,0.0,0,0.0,0
165,283,--,0.000,0.000,0.000,0.0,0,0.0,0
248,337,--,0.000,0.000,0.000,0.0,0,0.0,0
166,281,--,0.000,0.000,0.000,0.0,0,0.0,0
244,336,--,0.000,0.000,0.000,0.0,0,0.0,0
167,281,--,0.000,0.000,0.000,0.0,0,0.0,0
244,340,--,0.000,0.000,0.000,0.0,0,0.0,0
166,278,--,0.000,0.000,0.000,0.0,0,0.0,0
248,339,--,0.000,0.000,0.000,0.0,0,0.0,0
164,277,--,0.000,0.000,0.000,0.0,0,0.0,0
244,336,--,0.000,0.000,0.000,0.0,0,0.0,0
168,281,--,0.000,0.000,0.000,0.0,0,0.0,0
245,339,--,0.000,0.000,0.000,0.0,0,0.0,0
164,281,--,0.000,0.000,0.000,0.0,0,0.0,0
241,339,--,0.000,0.000,0.000,0.0,0,0.0,0
164,277,--,0.000,0.000,0.000,0.0,0,0.0,0
243,344,--,0.000,0.000,0.000,0.0,0,0.0,0
165,279,--,0.000,0.000,0.000,0.0,0,0.0,0
245,341,--,0.000,0.000,0.000,0.0,0,0.0,0
165,276,--,0.000,0.000,0.000,0.0,0,0.0,0
247,340,--,0.000,0.000,0.000,0.0,0,0.0,0
167,277,--,0.000,0.000,0.000,0.0,0,0.0,0
243,339,--,0.000,0.000,0.000,0.0,0,0.0,0
168,274,--,0.000,0.000,0.000,0.0,0,0.0,0
246,342,--,0.000,0.000,0.000,0.0,0,0.0,0
169,272,--,0.000,0.000,0.000,0.0,0,0.0,0
242,344,--,0.000,0.000,0.000,0.0,0,0.0,0
170,276,--,0.000,0.000,0.000,0.0,0,0.0,0
245,347,--,0.000,0.000,0.000,0.0,0,0.0,0
169,277,--,0.000,0.000,0.000,0.0,0,0.0,0
246,342,--,0.000,0.000,0.000,0.0,0,0.0,0
169,275,--,0.000,0.000,0.000,0.0,0,0.0,0
244,342,--,0.000,0.000,0.000,0.0,0,0.0,0
169,272,--,0.000,0.000,0.000,0.0,0,0.0,0
242,341,--,0.000,0.000,0.000,0.0,0,0.0,0
173,275,--,0.000,0.000,0.000,0.0,0,0.0,0
242,345,--,0.000,0.000,0.000,0.0,0,0.0,0
172,277,--,0.000,0.000,0.000,0.0,0,0.0,0
244,344,--,0.000,0.000,0.000,0.0,0,0.0,0
172,276,--,0.000,0.000,0.000,0.0,0,0.0,0
243,343,--,0.000,0.000,0.000,0.0,0,0.0,0
171,274,--,0.000,0.000,0.000,0.0,0,0.0,0
245,347,--,0.000,0.000,0.000,0.0,0,0.0,0
170,275,--,0.000,0.000,0.000,0.0,0,0.0,0
245,349,--,0.000,0.000,0.000,0.0,0,0.0,0
173,274,--,0.000,0.000,0.000,0.0,0,0.0,0
242,348,--,0.000,0.000,0.000,0.0,0,0.0,0
172,274,--,0.000,0.000,0.000,0.0,0,0.0,0
243,348,--,0.000,0.000,0.000,0.0,0,0.0,0
171,275,--,0.000,0.000,0.000,0.0,0,0.0,0
243,348,--,0.000,0.000,0.000,0.0,0,0.0,0
175,272,--,0.000,0.000,0.000,0.0,0,0.0,0
241,347,--,0.000,0.000,0.000,0.0,0,0.0,0
173,275,--,0.000,0.000,0.000,0.0,0,0.0,0
239,348,--,0.000,0.000,0.000,0.0,0,0.0,0
172,266,--,0.000,0.000,0.000,0.0,0,0.0,0
244,348,--,0.000,0.000,0.000,0.0,0,0.0,0
174,271,--,0.000,0.000,0.000,0.0,0,0.0,0
242,350,--,0.000,0.000,0.000,0.0,0,0.0,0
173,268,--,0.000,0.000,0.000,0.0,0,0.0,0
240,351,--,0.000,0.000,0.000,0.0,0,0.0,0
175,270,--,0.000,0.000,0.000,0.0,0,0.0,0
241,347,--,0.000,0.000,0.000,0.0,0,0.0,0
175,273,--,0.000,0.000,0.000,0.0,0,0.0,0
241,352,--,0.000,0.000,0.000,0.0,0,0.0,0
179,272,--,0.000,0.000,0.000,0.0,0,0.0,0
240,353,--,0.000,0.000,0.000,0.0,0,0.0,0
175,269,--,0.000,0.000,0.000,0.0,0,0.0,0
240,351,--,0.000,0.000,0.000,0.0,0,0.0,0
176,272,--,0.000,0.000,0.000,0.0,0,0.0,0
238,352,--,0.000,0.000,0.000,0.0,0,0.0,0
179,268,--,0.000,0.000,0.000,0.0,0,0.0,0
241,350,--,0.000,0.000,0.000,0.0,0,0.0,0
178,273,--,0.000,0.000,0.000,0.0,0,0.0,0
240,353,--,0.000,0.000,0.000,0.0,0,0.0,0
182,273,--,0.000,0.000,0.000,0.0,0,0.0,0
240,353,--,0.000,0.000,0.000,0.0,0,0.0,0
184,272,--,0.000,0.000,0.000,0.0,0,0.0,0
240,352,--,0.000,0.000,0.000,0.0,0,0.0,0
176,270,--,0.000,0.000,0.000,0.0,0,0.0,0
241,352,--,0.000,0.000,0.000,0.0,0,0.0,0
185,273,--,0.000,0.000,0.000,0.0,0,0.0,0
241,352,--,0.000,0.000,0.000,0.0,0,0.0,0
180,273,--,0.000,0.000,0.000,0.0,0,0.0,0
241,359,--,0.000,0.000,0.000,0.0,0,0.0,0
183,276,--,0.000,0.000,0.000,0.0,0,0.0,0
241,354,--,0.000,0.000,0.000,0.0,0,0.0,0
182,278,--,0.000,0.000,0.000,0.0,0,0.0,0
239,358,--,0.000,0.000,0.000,0.0,0,0.0,0
184,277,--,0.000,0.000,0.000,0.0,0,0.0,0
237,352,--,0.000,0.000,0.000,0.0,0,0.0,0
176,272,--,0.000,0.000,0.000,0.0,0,0.0,0
232,351,--,0.000,0.000,0.000,0.0,0,0.0,0
183,278,--,0.000,0.000,0.000,0.0,0,0.0,0
238,356,--,0.000,0.000,0.000,0.0,0,0.0,0
183,275,--,0.000,0.000,0.000,0.0,0,0.0,0
240,352,--,0.000,0.000,0.000,0.0,0,0.0,0
185,280,--,0.000,0.000,0.000,0.0,0,0.0,0
229,350,--,0.000,0.000,0.000,0.0,0,0.0,0
184,279,--,0.000,0.000,0.000,0.0,0,0.0,0
226,342,--,0.000,0.000,0.000,0.0,0,0.0,0
174,270,--,0.000,0.000,0.000,0.0,0,0.0,0
228,341,--,0.000,0.000,0.000,0.0,0,0.0,0
188,283,--,0.000,0.000,0.000,0.0,0,0.0,0
236,356,--,0.000,0.000,0.000,0.0,0,0.0,0
195,290,--,0.000,0.000,0.000,0.0,0,0.0,0
238,355,--,0.000,0.000,0.000,0.0,0,0.0,0
197,292,--,0.000,0.000,0.000,0.0,0,0.0,0
236,356,--,0.000,0.000,0.000,0.0,0,0.0,0
199,297,--,0.000,0.000,0.000,0.0,0,0.0,0
238,355,--,0.000,0.000,0.000,0.0,0,0.0,0
200,294,--,0.000,0.000,0.000,0.0,0,0.0,0
238,354,--,0.000,0.000,0.000,0.0,0,0.0,0
199,298,--,0.000,0.000,0.000,0.0,0,0.0,0
235,358,--,0.000,0.000,0.000,0.0,0,0.0,0
202,297,--,0.000,0.000,0.000,0.0,0,0.0,0
241,357,--,0.000,0.000,0.000,0.0,0,0.0,0
204,302,--,0.000,0.000,0.000,0.0,0,0.0,0
236,360,--,0.000,0.000,0.000,0.0,0,0.0,0
206,304,--,0.000,0.000,0.000,0.0,0,0.0,0
239,360,--,0.000,0.000,0.000,0.0,0,0.0,0
203,302,--,0.000,0.000,0.000,0.0,0,0.0,0
239,363,--,0.000,0.000,0.000,0.0,0,0.0,0
205,307,--,0.000,0.000,0.000,0.0,0,0.0,0
243,363,--,0.000,0.000,0.000,0.0,0,0.0,0
208,307,--,0.000,0.000,0.000,0.0,0,0.0,0
242,365,--,0.000,0.000,0.000,0.0,0,0.0,0
212,309,--,0.000,0.000,0.000,0.0,0,0.0,0
239,368,--,0.000,0.000,0.000,0.0,0,0.0,0
187,302,--,0.000,0.000,0.000,0.0,0,0.0,0
74,216,--,0.000,0.000,0.000,0.0,0,0.0,0
103,191,--,0.000,0.000,0.000,0.0,0,0.0,0
216,332,--,0.000,0.000,0.000,0.0,0,0.0,0
227,343,--,0.000,0.000,0.000,0.0,0,0.0,0
230,344,--,0.000,0.000,0.000,0.0,0,0.0,0
231,347,--,0.000,0.000,0.000,0.0,0,0.0,0
234,352,--,0.000,0.000,0.000,0.0,0,0.0,0
234,350,--,0.000,0.000,0.000,0.0,0,0.0,0
233,354,--,0.000,0.000,0.000,0.0,0,0.0,0
235,349,--,0.000,0.000,0.000,0.0,0,0.0,0
241,353,--,0.000,0.000,0.000,0.0,0,0.0,0
236,351,--,0.000,0.000,0.000,0.0,0,0.0,0
239,360,--,0.000,0.000,0.000,0.0,0,0.0,0
242,353,--,0.000,0.000,0.000,0.0,0,0.0,0
245,358,--,0.000,0.000,0.000,0.0,0,0.0,0
245,362,--,0.000,0.000,0.000,0.0,0,0.0,0
249,365,--,0.000,0.000,0.000,0.0,0,0.0,0
250,361,--,0.000,0.000,0.000,0.0,0,0.0,0
253,367,--,0.000,0.000,0.000,0.0,0,0.0,0
251,359,--,0.000,0.000,0.000,0.0,0,0.0,0
253,368,--,0.000,0.000,0.000,0.0,0,0.0,0
256,364,--,0.000,0.000,0.000,0.0,0,0.0,0
258,367,--,0.000,0.000,0.000,0.0,0,0.0,0
259,365,--,0.000,0.000,0.000,0.0,0,0.0,0
262,369,--,0.000,0.000,0.000,0.0,0,0.0,0
261,368,--,0.000,0.000,0.000,0.0,0,0.0,0
266,375,--,0.000,0.000,0.000,0.0,0,0.0,0
269,370,--,0.000,0.000,0.000,0.0,0,0.0,0
267,376,--,0.000,0.000,0.000,0.0,0,0.0,0
271,370,--,0.000,0.000,0.000,0.0,0,0.0,0
275,377,--,0.000,0.000,0.000,0.0,0,0.0,0
272,377,--,0.000,0.000,0.000,0.0,0,0.0,0
275,378,--,0.000,0.000,0.000,0.0,0,0.0,0
281,379,--,0.000,0.000,0.000,0.0,0,0.0,0
283,387,--,0.000,0.000,0.000,0.0,0,0.0,0
286,384,--,0.000,0.000,0.000,0.0,0,0.0,0
287,389,--,0.000,0.000,0.000,0.0,0,0.0,0
293,387,--,0.000,0.000,0.000,0.0,0,0.0,0
298,394,--,0.000,0.000,0.000,0.0,0,0.0,0
301,389,--,0.000,0.000,0.000,0.0,0,0.0,0
305,395,--,0.000,0.000,0.000,0.0,0,0.0,0
308,401,--,0.000,0.000,0.000,0.0,0,0.0,0
310,409,--,0.000,0.000,0.000,0.0,0,0.0,0
319,409,--,0.000,0.000,0.000,0.0,0,0.0,0
325,411,--,0.000,0.000,0.000,0.0,0,0.0,0
330,408,--,0.000,0.000,0.000,0.0,0,0.0,0
337,419,--,0.000,0.000,0.000,0.0,0,0.0,0
344,426,--,0.000,0.000,0.000,0.0,0,0.0,0
353,429,--,0.000,0.000,0.000,0.0,0,0.0,0
355,430,--,0.000,0.000,0.000,0.0,0,0.0,0
366,436,--,0.000,0.000,0.000,0.0,0,0.0,0
375,435,--,0.000,0.000,0.000,0.0,0,0.0,0
380,443,--,0.000,0.000,0.000,0.0,0,0.0,0
384,445,--,0.000,0.000,0.000,0.0,0,0.0,0
392,451,--,0.000,0.000,0.000,0.0,0,0.0,0
403,452,--,0.000,0.000,0.000,0.0,0,0.0,0
405,460,--,0.000,0.000,0.000,0.0,0,0.0,0
411,459,--,0.000,0.000,0.000,0.0,0,0.0,0
421,465,--,0.000,0.000,0.000,0.0,0,0.0,0
429,467,--,0.000,0.000,0.000,0.0,0,0.0,0
434,475,--,0.000,0.000,0.000,0.0,0,0.0,0
440,476,--,0.000,0.000,0.000,0.0,0,0.0,0
450,480,--,0.000,0.000,0.000,0.0,0,0.0,0
448,480,--,0.000,0.000,0.000,0.0,0,0.0,0
455,491,--,0.000,0.000,0.000,0.0,0,0.0,0
461,490,--,0.000,0.000,0.000,0.0,0,0.0,0
463,493,--,0.000,0.000,0.000,0.0,0,0.0,0
469,496,--,0.000,0.000,0.000,0.0,0,0.0,0
468,499,--,0.000,0.000,0.000,0.0,0,0.0,0
471,498,--,0.000,0.000,0.000,0.0,0,0.0,0
475,505,--,0.000,0.000,0.000,0.0,0,0.0,0
476,504,--,0.000,0.000,0.000,0.0,0,0.0,0
474,513,--,0.000,0.000,0.000,0.0,0,0.0,0
479,509,--,0.000,0.000,0.000,0.0,0,0.0,0
484,514,--,0.000,0.000,0.000,0.0,0,0.0,0
484,520,--,0.000,0.000,0.000,0.0,0,0.0,0
491,525,--,0.000,0.000,0.000,0.0,0,0.0,0
497,530,--,0.000,0.000,0.000,0.0,0,0.0,0
507,535,--,0.000,0.000,0.000,0.0,0,0.0,0
518,542,--,0.000,0.000,0.000,0.0,0,0.0,0
529,551,--,0.000,0.000,0.000,0.0,0,0.0,0
545,560,--,0.000,0.000,0.000,0.0,0,0.0,0
564,577,--,0.000,0.000,0.000,0.0,0,0.0,0
580,589,--,0.000,0.000,0.000,0.0,0,0.0,0
604,603,--,0.000,0.000,0.000,0.0,0,0.0,0
622,622,--,0.000,0.000,0.000,0.0,0,0.0,0
654,646,--,0.000,0.000,0.000,0.0,0,0.0,0
679,663,--,0.000,0.000,0.000,0.0,0,0.0,0
717,691,--,0.000,0.000,0.000,0.0,0,0.0,0
751,719,--,0.000,0.000,0.000,0.0,0,0.0,0
781,742,--,0.000,0.000,0.000,0.0,0,0.0,0
823,758,--,0.000,0.000,0.000,0.0,0,0.0,0
873,790,--,0.000,0.000,0.000,0.0,0,0.0,0
925,818,--,0.000,0.000,0.000,0.0,0,0.0,0
969,846,--,0.000,0.000,0.000,0.0,0,0.0,0
999,861,--,0.000,0.000,0.000,0.0,0,0.0,0
1002,870,--,0.000,0.000,0.000,0.0,0,0.0,0
998,860,--,0.000,0.000,0.000,0.0,0,0.0,0
987,861,--,0.000,0.000,0.000,0.0,0,0.0,0
981,845,--,0.000,0.000,0.000,0.0,0,0.0,0
996,854,--,0.000,0.000,0.000,0.0,0,0.0,0
1015,862,--,0.000,0.000,0.000,0.0,0,0.0,0
1036,881,--,0.000,0.000,0.000,0.0,0,0.0,0
1048,872,--,0.000,0.000,0.000,0.0,0,0.0,0
1035,874,--,0.000,0.000,0.000,0.0,0,0.0,0
965,785,--,0.000,0.000,0.000,0.0,0,0.0,0
883,714,--,0.000,0.000,0.000,0.0,0,0.0,0
810,633,--,0.000,0.000,0.000,0.0,0,0.0,0
623,512,--,0.000,0.000,0.000,0.0,0,0.0,0
551,422,--,0.000,0.000,0.000,0.0,0,0.0,0
612,531,--,0.000,0.000,0.000,0.0,0,0.0,0
602,552,--,0.000,0.000,0.000,0.0,0,0.0,0
573,549,--,0.000,0.000,0.000,0.0,0,0.0,0
558,539,--,0.000,0.000,0.000,0.0,0,0.0,0
542,535,--,0.000,0.000,0.000,0.0,0,0.0,0
544,543,--,0.000,0.000,0.000,0.0,0,0.0,0
541,552,--,0.000,0.000,0.000,0.0,0,0.0,0
547,556,--,0.000,0.000,0.000,0.0,0,0.0,0
543,565,--,0.000,0.000,0.000,0.0,0,0.0,0
549,576,--,0.000,0.000,0.000,0.0,0,0.0,0
554,580,--,0.000,0.000,0.000,0.0,0,0.0,0
558,578,--,0.000,0.000,0.000,0.0,0,0.0,0
558,591,--,0.000,0.000,0.000,0.0,0,0.0,0
566,596,--,0.000,0.000,0.000,0.0,0,0.0,0
570,602,--,0.000,0.000,0.000,0.0,0,0.0,0
579,614,--,0.000,0.000,0.000,0.0,0,0.0,0
583,623,--,0.000,0.000,0.000,0.0,0,0.0,0
598,631,--,0.000,0.000,0.000,0.0,0,0.0,0
610,641,--,0.000,0.000,0.000,0.0,0,0.0,0
620,650,--,0.000,0.000,0.000,0.0,0,0.0,0
629,664,--,0.000,0.000,0.000,0.0,0,0.0,0
641,675,--,0.000,0.000,0.000,0.0,0,0.0,0
650,686,--,0.000,0.000,0.000,0.0,0,0.0,0
666,700,--,0.000,0.000,0.000,0.0,0,0.0,0
675,718,--,0.000,0.000,0.000,0.0,0,0.0,0
690,733,--,0.000,0.000,0.000,0.0,0,0.0,0
704,753,--,0.000,0.000,0.000,0.0,0,0.0,0
717,767,--,0.000,0.000,0.000,0.0,0,0.0,0
731,783,--,0.000,0.000,0.000,0.0,0,0.0,0
750,800,--,0.000,0.000,0.000,0.0,0,0.0,0
763,817,--,0.000,0.000,0.000,0.0,0,0.0,0
784,831,--,0.000,0.000,0.000,0.0,0,0.0,0
794,852,--,0.000,0.000,0.000,0.0,0,0.0,0
811,863,--,0.000,0.000,0.000,0.0,0,0.0,0
827,884,--,0.000,0.000,0.000,0.0,0,0.0,0
847,903,--,0.000,0.000,0.000,0.0,0,0.0,0
858,924,--,0.000,0.000,0.000,0.0,0,0.0,0
880,943,--,0.000,0.000,0.000,0.0,0,0.0,0
894,953,--,0.000,0.000,0.000,0.0,0,0.0,0
916,975,--,0.000,0.000,0.000,0.0,0,0.0,0
927,996,--,0.000,0.000,0.000,0.0,0,0.0,0
949,1018,--,0.000,0.000,0.000,0.0,0,0.0,0
971,1043,--,0.000,0.000,0.000,0.0,0,0.0,0
988,1063,--,0.000,0.000,0.000,0.0,0,0.0,0
987,1071,--,0.000,0.000,0.000,0.0,0,0.0,0
988,1068,--,0.000,0.000,0.000,0.0,0,0.0,0
984,1066,--,0.000,0.000,0.000,0.0,0,0.0,0
980,1060,--,0.000,0.000,0.000,0.0,0,0.0,0
974,1054,--,0.000,0.000,0.000,0.0,0,0.0,0
968,1046,--,0.000,0.000,0.000,0.0,0,0.0,0
955,1039,--,0.000,0.000,0.000,0.0,0,0.0,0
950,1026,--,0.000,0.000,0.000,0.0,0,0.0,0
936,1021,--,0.000,0.000,0.000,0.0,0,0.0,0
936,1014,--,0.000,0.000,0.000,0.0,0,0.0,0
929,1009,--,0.000,0.000,0.000,0.0,0,0.0,0
925,998,--,0.000,0.000,0.000,0.0,0,0.0,0
917,995,--,0.000,0.000,0.000,0.0,0,0.0,0
916,987,--,0.000,0.000,0.000,0.0,0,0.0,0
904,975,--,0.000,0.000,0.000,0.0,0,0.0,0
905,970,--,0.000,0.000,0.000,0.0,0,0.0,0
898,963,--,0.000,0.000,0.000,0.0,0,0.0,0
899,959,--,0.000,0.000,0.000,0.0,0,0.0,0
896,958,--,0.000,0.000,0.000,0.0,0,0.0,0
903,955,--,0.000,0.000,0.000,0.0,0,0.0,0
904,955,--,0.000,0.000,0.000,0.0,0,0.0,0
913,959,--,0.000,0.000,0.000,0.0,0,0.0,0
916,958,--,0.000,0.000,0.000,0.0,0,0.0,0
922,959,--,0.000,0.000,0.000,0.0,0,0.0,0
924,962,--,0.000,0.000,0.000,0.0,0,0.0,0
933,969,--,0.000,0.000,0.000,0.0,0,0.0,0
938,964,--,0.000,0.000,0.000,0.0,0,0.0,0
944,960,--,0.000,0.000,0.000,0.0,0,0.0,0
939,959,--,0.000,0.000,0.000,0.0,0,0.0,0
946,957,--,0.000,0.000,0.000,0.0,0,0.0,0
942,949,--,0.000,0.000,0.000,0.0,0,0.0,0
952,947,--,0.000,0.000,0.000,0.0,0,0.0,0
949,942,--,0.000,0.000,0.000,0.0,0,0.0,0
957,941,--,0.000,0.000,0.000,0.0,0,0.0,0
950,936,--,0.000,0.000,0.000,0.0,0,0.0,0
953,927,--,0.000,0.000,0.000,0.0,0,0.0,0
951,917,--,0.000,0.000,0.000,0.0,0,0.0,0
951,914,--,0.000,0.000,0.000,0.0,0,0.0,0
941,901,--,0.000,0.000,0.000,0.0,0,0.0,0
938,893,--,0.000,0.000,0.000,0.0,0,0.0,0
926,873,--,0.000,0.000,0.000,0.0,0,0.0,0
924,859,--,0.000,0.000,0.000,0.0,0,0.0,0
904,841,--,0.000,0.000,0.000,0.0,0,0.0,0
895,828,--,0.000,0.000,0.000,0.0,0,0.0,0
871,808,--,0.000,0.000,0.000,0.0,0,0.0,0
859,793,--,0.000,0.000,0.000,0.0,0,0.0,0
841,779,--,0.000,0.000,0.000,0.0,0,0.0,0
830,770,--,0.000,0.000,0.000,0.0,0,0.0,0
806,759,--,0.000,0.000,0.000,0.0,0,0.0,0
789,757,--,0.000,0.000,0.000,0.0,0,0.0,0
771,748,--,0.000,0.000,0.000,0.0,0,0.0,0
768,744,--,0.000,0.000,0.000,0.0,0,0.0,0
746,736,--,0.000,0.000,0.000,0.0,0,0.0,0
754,745,--,0.000,0.000,0.000,0.0,0,0.0,0
748,752,--,0.000,0.000,0.000,0.0,0,0.0,0
767,776,--,0.000,0.000,0.000,0.0,0,0.0,0
777,796,--,0.000,0.000,0.000,0.0,0,0.0,0
807,827,--,0.000,0.000,0.000,0.0,0,0.0,0
825,855,--,0.000,0.000,0.000,0.0,0,0.0,0
868,900,--,0.000,0.000,0.000,0.0,0,0.0,0
897,934,--,0.000,0.000,0.000,0.0,0,0.0,0
958,989,--,0.000,0.000,0.000,0.0,0,0.0,0
1008,1044,--,0.000,0.000,0.000,0.0,0,0.0,0
1085,1119,--,0.000,0.000,0.000,0.0,0,0.0,0
1149,1193,--,0.000,0.000,0.000,0.0,0,0.0,0
1236,1280,--,0.000,0.000,0.000,0.0,0,0.0,0
1310,1359,--,0.000,0.000,0.000,0.0,0,0.0,0
1416,1448,--,0.000,0.000,0.000,0.0,0,0.0,0
1488,1527,--,0.000,0.000,0.000,0.0,0,0.0,0
1572,1611,--,0.000,0.000,0.000,0.0,0,0.0,0
1615,1666,--,0.000,0.000,0.000,0.0,0,0.0,0
1658,1704,--,0.000,0.000,0.000,0.0,0,0.0,0
1650,1705,--,0.000,0.000,0.000,0.0,0,0.0,0
1650,1701,--,0.000,0.000,0.000,0.0,0,0.0,0
1612,1671,--,0.000,0.000,0.000,0.0,0,0.0,0
1603,1651,--,0.000,0.000,0.000,0.0,0,0.0,0
1574,1621,--,0.000,0.000,0.000,0.0,0,0.0,0
1587,1625,--,0.000,0.000,0.000,0.0,0,0.0,0
1564,1612,--,0.000,0.000,0.000,0.0,0,0.0,0
1576,1618,--,0.000,0.000,0.000,0.0,0,0.0,0
1545,1594,--,0.000,0.000,0.000,0.0,0,0.0,0
1553,1596,--,0.000,0.000,0.000,0.0,0,0.0,0
1542,1588,--,0.000,0.000,0.000,0.0,0,0.0,0
1555,1595,--,0.000,0.000,0.000,0.0,0,0.0,0
1533,1582,--,0.000,0.000,0.000,0.0,0,0.0,0
1536,1583,--,0.000,0.000,0.000,0.0,0,0.0,0
1500,1558,--,0.000,0.000,0.000,0.0,0,0.0,0
1501,1547,--,0.000,0.000,0.000,0.0,0,0.0,0
1465,1512,--,0.000,0.000,0.000,0.0,0,0.0,0
1464,1505,--,0.000,0.000,0.000,0.0,0,0.0,0
1426,1482,--,0.000,0.000,0.000,0.0,0,0.0,0
1430,1475,--,0.000,0.000,0.000,0.0,0,0.0,0
1382,1433,--,0.000,0.000,0.000,0.0,0,0.0,0
1360,1405,--,0.000,0.000,0.000,0.0,0,0.0,0
1277,1337,--,0.000,0.000,0.000,0.0,0,0.0,0
1235,1291,--,0.000,0.000,0.000,0.0,0,0.0,0
1162,1224,--,0.000,0.000,0.000,0.0,0,0.0,0
1129,1179,--,0.000,0.000,0.000,0.0,0,0.0,0
1059,1112,--,0.000,0.000,0.000,0.0,0,0.0,0
1032,1079,--,0.000,0.000,0.000,0.0,0,0.0,0
976,1033,--,0.000,0.000,0.000,0.0,0,0.0,0
956,1014,--,0.000,0.000,0.000,0.0,0,0.0,0
907,971,--,0.000,0.000,0.000,0.0,0,0.0,0
913,958,--,0.000,0.000,0.000,0.0,0,0.0,0
873,928,--,0.000,0.000,0.000,0.0,0,0.0,0
893,942,--,0.000,0.000,0.000,0.0,0,0.0,0
870,927,--,0.000,0.000,0.000,0.0,0,0.0,0
895,952,--,0.000,0.000,0.000,0.0,0,0.0,0
887,946,--,0.000,0.000,0.000,0.0,0,0.0,0
928,975,--,0.000,0.000,0.000,0.0,0,0.0,0
927,985,--,0.000,0.000,0.000,0.0,0,0.0,0
979,1040,--,0.000,0.000,0.000,0.0,0,0.0,0
1010,1066,--,0.000,0.000,0.000,0.0,0,0.0,0
1090,1140,--,0.000,0.000,0.000,0.0,0,0.0,0
1124,1183,--,0.000,0.000,0.000,0.0,0,0.0,0
1231,1277,--,0.000,0.000,0.000,0.0,0,0.0,0
1303,1356,--,0.000,0.000,0.000,0.0,0,0.0,0
1440,1493,--,0.000,0.000,0.000,0.0,0,0.0,0
1542,1594,--,0.000,0.000,0.000,0.0,0,0.0,0
1699,1746,--,0.000,0.000,0.000,0.0,0,0.0,0
1796,1853,--,0.000,0.000,0.000,0.0,0,0.0,0
1924,1984,--,0.000,0.000,0.000,0.0,0,0.0,0
1979,2055,--,0.000,0.000,0.000,0.0,0,0.0,0
2078,2142,--,0.000,0.000,0.000,0.0,0,0.0,0
2128,2201,--,0.000,0.000,0.000,0.0,0,0.0,0
2215,2285,--,0.000,0.000,0.000,0.0,0,0.0,0
2255,2336,--,0.000,0.000,0.000,0.0,0,0.0,0
2330,2408,--,0.000,0.000,0.000,0.0,0,0.0,0
2333,2427,--,0.000,0.000,0.000,0.0,0,0.0,0
2370,2459,--,0.000,0.000,0.000,0.0,0,0.0,0
9172,9433,--,0.000,0.000,0.000,0.0,0,0.0,0
4110,4285,--,0.000,0.000,0.000,0.0,0,0.0,0
3562,3727,--,0.000,0.000,0.000,0.0,0,0.0,0
3082,3221,--,0.000,0.000,0.000,0.0,0,0.0,0
2767,2834,--,0.000,0.000,0.000,0.0,0,0.0,0
2567,2579,--,0.000,0.000,0.000,0.0,0,0.0,0
2458,2412,--,0.000,0.000,0.000,0.0,0,0.0,0
2422,2321,--,0.000,0.000,0.000,0.0,0,0.0,0
2453,2331,--,0.000,0.000,0.000,0.0,0,0.0,0
2545,2389,--,0.000,0.000,0.000,0.0,0,0.0,0
2683,2505,--,0.000,0.000,0.000,0.0,0,0.0,0
2834,2639,--,0.000,0.000,0.000,0.0,0,0.0,0
3060,2829,--,0.000,0.000,0.000,0.0,0,0.0,0
3347,3107,--,0.000,0.000,0.000,0.0,0,0.0,0
3679,3442,--,0.000,0.000,0.000,0.0,0,0.0,0
4003,3781,--,0.000,0.000,0.000,0.0,0,0.0,0
4322,4142,--,0.000,0.000,0.000,0.0,0,0.0,0
4643,4513,--,0.000,0.000,0.000,0.0,0,0.0,0
4986,4936,--,0.000,0.000,0.000,0.0,0,0.0,0
5495,5503,--,0.000,0.000,0.000,0.0,0,0.0,0
6358,6470,--,0.000,0.000,0.000,0.0,0,0.0,0
7896,8156,--,0.000,0.000,0.000,0.0,0,0.0,0
10283,10745,--,0.000,0.000,0.000,0.0,0,0.0,0
13952,14866,--,0.000,0.000,0.000,0.0,0,0.0,0
17781,19420,--,0.000,0.000,0.000,0.0,0,0.0,0
49058,53793,--,0.000,0.000,0.000,0.0,0,0.0,0
50516,55029,--,0.000,0.000,0.000,0.0,0,0.0,0
50634,55367,--,0.000,0.000,0.000,0.0,0,0.0,0
50327,54731,--,0.000,0.000,0.000,0.0,0,0.0,0
51278,55343,--,0.000,0.000,0.000,0.0,0,0.0,0
52986,57075,--,0.000,0.000,0.000,0.0,0,0.0,0
54974,58910,--,0.000,0.000,0.000,0.0,0,0.0,0
57560,61283,--,0.000,0.000,0.000,0.0,0,0.0,0
60028,63506,--,0.000,0.000,0.000,0.0,0,0.0,1
62715,65896,--,0.000,0.000,0.000,0.0,0,0.0,1
65883,68334,--,0.000,0.000,0.000,0.0,0,0.0,1
69652,72028,--,0.000,0.000,0.000,0.0,0,0.0,1
72623,75170,--,0.000,0.000,0.000,0.0,0,0.0,1
72193,74616,--,0.000,0.000,0.000,0.0,0,0.0,1
71090,73436,--,0.000,0.000,0.000,0.0,0,0.0,1
67137,69250,--,0.000,0.000,0.000,0.0,0,0.0,1
61409,63403,--,0.000,0.000,0.000,0.0,0,0.0,1
51118,53012,--,0.000,0.000,0.000,0.0,0,0.0,1
34742,35657,--,0.000,0.000,0.000,0.0,0,0.0,1
19585,19552,--,0.000,0.000,0.000,0.0,0,0.0,1
10723,10470,--,0.000,0.000,0.000,0.0,0,0.0,1
6510,6274,--,0.000,0.000,0.000,0.0,0,0.0,1
4712,4442,--,0.000,0.000,0.000,0.0,0,0.0,1
4067,3763,--,0.000,0.000,0.000,0.0,0,0.0,1
3839,3516,--,0.000,0.000,0.000,0.0,0,0.0,1
4082,3712,--,0.000,0.000,0.000,0.0,0,0.0,1
4300,3883,--,0.000,0.000,0.000,0.0,0,0.0,1
4585,4143,--,0.000,0.000,0.000,0.0,0,0.0,0
4754,4341,--,0.000,0.000,0.000,0.0,0,0.0,0
4861,4459,--,0.000,0.000,0.000,0.0,0,0.0,0
4981,4582,--,0.000,0.000,0.000,0.0,0,0.0,0
5289,4847,--,0.000,0.000,0.000,0.0,0,0.0,0
5823,5317,--,0.000,0.000,0.000,0.0,0,0.0,0
6372,5812,--,0.000,0.000,0.000,0.0,0,0.0,0
7004,6329,--,0.000,0.000,0.000,0.0,0,0.0,0
7591,6778,--,0.000,0.000,0.000,0.0,0,0.0,0
8323,7268,--,0.000,0.000,0.000,0.0,0,0.0,0
9543,8203,--,0.000,0.000,0.000,0.0,0,0.0,0
10883,9307,--,0.000,0.000,0.000,0.0,0,0.0,0
12030,10277,--,0.000,0.000,0.000,0.0,0,0.0,0
12447,10587,--,0.000,0.000,0.000,0.0,0,0.0,0
12490,10484,--,0.000,0.000,0.000,0.0,0,0.0,0
12871,10570,--,0.000,0.000,0.000,0.0,0,0.0,0
14594,11627,--,0.000,0.000,0.000,0.0,0,0.0,0
18690,14392,--,0.000,0.000,0.000,0.0,0,0.0,0
28785,21498,--,0.000,0.000,0.000,0.0,0,0.0,0
50286,38214,--,0.000,0.000,0.000,0.0,0,0.0,0
64790,52297,--,0.000,0.000,0.000,0.0,0,0.0,0
71792,59283,--,0.000,0.000,0.000,0.0,0,0.0,0
72403,60894,--,0.000,0.000,0.000,0.0,0,0.0,0
2993,11,--,0.000,0.000,0.000,0.0,0,0.0,0
6750,26,--,0.000,0.000,0.000,0.0,0,0.0,0
5012,18,--,0.000,0.000,0.000,0.0,0,0.0,1
4454,22,--,0.000,0.000,0.000,0.0,0,0.0,1
8421,27,--,0.000,0.000,0.000,0.0,0,0.0,1
106091,94521,--,0.000,0.000,0.000,0.0,0,0.0,1
68586,63847,--,0.000,0.000,0.000,0.0,0,0.0,1
76990,73942,--,0.000,0.000,0.000,0.0,0,0.0,1
82604,81301,--,0.000,0.000,0.000,0.0,0,0.0,1
82807,83008,--,0.000,0.000,0.000,0.0,0,0.0,1
81509,80054,--,0.000,0.000,0.000,0.0,0,0.0,1
80567,77963,--,0.000,0.000,0.000,0.0,0,0.0,1
80375,77039,--,0.000,0.000,0.000,0.0,0,0.0,1
81177,77207,--,0.000,0.000,0.000,0.0,0,0.0,1
82512,78052,--,0.000,0.000,0.000,0.0,0,0.0,1
83673,78811,--,0.000,0.000,0.000,0.0,0,0.0,1
84645,79428,--,0.000,0.000,0.000,0.0,0,0.0,1
85349,79887,--,0.000,0.000,0.000,0.0,0,0.0,1
86322,80535,--,0.000,0.000,0.000,0.0,0,0.0,1
87403,81266,--,0.000,0.000,0.000,0.0,0,0.0,1
88356,81862,--,0.000,0.000,0.000,0.0,0,0.0,1
89459,82482,--,0.000,0.000,0.000,0.0,0,0.0,1
91022,83329,--,0.000,0.000,0.000,0.0,0,0.0,1
92337,83891,--,0.000,0.000,0.000,0.0,0,0.0,1
93548,84311,--,0.000,0.000,0.000,0.0,0,0.0,1
94680,84706,--,0.000,0.000,0.000,0.0,0,0.0,1
95676,84985,--,0.000,0.000,0.000,0.0,0,0.0,1
96604,85237,--,0.000,0.000,0.000,0.0,0,0.0,1
97487,85443,--,0.000,0.000,0.000,0.0,0,0.0,1
98206,85605,--,0.000,0.000,0.000,0.0,0,0.0,1
106718,106690,--,0.000,0.000,0.000,0.0,0,0.0,1
123096,123135,--,0.000,0.000,0.000,0.0,0,0.0,1
139457,139484,--,0.000,0.000,0.000,0.0,0,0.0,1
155880,155870,--,0.000,0.000,0.000,0.0,0,0.0,1
172248,172259,--,0.000,0.000,0.000,0.0,0,0.0,1
188615,188624,--,0.000,0.000,0.000,0.0,0,0.0,1
205020,196747,--,0.000,0.000,0.000,0.0,0,0.0,1
221409,196500,--,0.000,0.000,0.000,0.0,0,0.0,1
225841,196620,--,0.000,0.000,0.000,0.0,0,0.0,1
226053,196733,--,0.000,0.000,0.000,0.0,0,0.0,1
226230,196789,--,0.000,0.000,0.000,0.0,0,0.0,1
226387,196858,--,0.000,0.000,0.000,0.0,0,0.0,1
226471,196920,--,0.000,0.000,0.000,0.0,0,0.0,1
226531,196935,--,0.000,0.000,0.000,0.0,0,0.0,1
226507,196939,--,0.000,0.000,0.000,0.0,0,0.0,1
226437,196876,--,0.000,0.000,0.000,0.0,0,0.0,1
226371,196844,--,0.000,0.000,0.000,0.0,0,0.0,1
226277,196782,--,0.000,0.000,0.000,0.0,0,0.0,1
226172,196663,--,0.000,0.000,0.000,0.0,0,0.0,1
226079,196477,--,0.000,0.000,0.000,0.0,0,0.0,1
226065,196241,--,0.000,0.000,0.000,0.0,0,0.0,1
226179,195992,--,0.000,0.000,0.000,0.0,0,0.0,1
226573,195857,--,0.000,0.000,0.000,0.0,0,0.0,1
227347,195950,--,0.000,0.000,0.000,0.0,0,0.0,1
228597,196419,--,0.000,0.000,0.000,0.0,0,0.0,1
237799,218632,--,0.000,0.000,0.000,0.0,0,0.0,1
254094,219112,--,0.000,0.000,0.000,0.0,0,0.0,1
262143,219947,--,0.000,0.000,0.000,0.0,0,0.0,1
262143,220655,--,0.000,0.000,0.000,0.0,0,0.0,1
262143,221296,--,0.000,0.000,0.000,0.0,0,0.0,1
262143,221936,--,0.000,0.000,0.000,0.0,0,0.0,1
262143,223047,--,0.000,0.000,0.000,0.0,0,0.0,1
262143,225027,--,0.000,0.000,0.000,0.0,0,0.0,1
262143,227103,--,0.000,0.000,0.000,0.0,0,0.0,1
262143,228845,--,0.000,0.000,0.000,0.0,0,0.0,1
262143,230425,--,0.000,0.000,0.000,0.0,0,0.0,1
262143,231610,--,0.000,0.000,0.000,0.0,0,0.0,1
262143,232134,--,0.000,0.000,0.000,0.0,0,0.0,1
262143,232689,--,0.000,0.000,0.000,0.0,0,0.0,1
262143,232811,--,0.000,0.000,0.000,0.0,0,0.0,1
262143,232601,--,0.000,0.000,0.000,0.0,0,0.0,1
262143,232110,--,0.000,0.000,0.000,0.0,0,0.0,1
262143,231516,--,0.000,0.000,0.000,0.0,0,0.0,1
262143,230770,--,0.000,0.000,0.000,0.0,0,0.0,1
262143,229474,--,0.000,0.000,0.000,0.0,0,0.0,1
262143,228845,--,0.000,0.000,0.000,0.0,0,0.0,1
262143,228328,--,0.000,0.000,0.000,0.0,0,0.0,1
262143,228152,--,0.000,0.000,0.000,0.0,0,0.0,1
262143,227911,--,0.000,0.000,0.000,0.0,0,0.0,1
262143,227774,--,0.000,0.000,0.000,0.0,0,0.0,1
262143,227898,--,0.000,0.000,0.000,0.0,0,0.0,1
262143,228302,--,0.000,0.000,0.000,0.0,0,0.0,1
262143,228695,--,0.000,0.000,0.000,0.0,0,0.0,1
262143,228849,--,0.000,0.000,0.000,0.0,0,0.0,1
262143,228561,--,0.000,0.000,0.000,0.0,0,0.0,1
262143,227815,--,0.000,0.000,0.000,0.0,0,0.0,1
261543,226851,--,0.000,0.000,0.000,0.0,0,0.0,1
260225,225943,--,0.000,0.000,0.000,0.0,0,0.0,1
259019,225116,--,0.000,0.000,0.000,0.0,0,0.0,1
257867,224280,--,0.000,0.000,0.000,0.0,0,0.0,1
256993,223585,--,0.000,0.000,0.000,0.0,0,0.0,1
256223,223042,--,0.000,0.000,0.000,0.0,0,0.0,1
255363,222447,--,0.000,0.000,0.000,0.0,0,0.0,1
254452,221589,--,0.000,0.000,0.000,0.0,0,0.0,1
253745,220593,--,0.000,0.000,0.000,0.0,0,0.0,1
254099,219980,--,0.000,0.000,0.000,0.0,0,0.0,1
255343,220002,--,0.000,0.000,0.000,0.0,0,0.0,1
256961,220454,--,0.000,0.000,0.000,0.0,0,0.0,1
258589,221046,--,0.000,0.000,0.000,0.0,0,0.0,1
259976,221618,--,0.000,0.000,0.000,0.0,0,0.0,1
261052,222096,--,0.000,0.000,0.000,0.0,0,0.0,1
261894,222454,--,0.000,0.000,0.000,0.0,0,0.0,1
262143,222719,--,0.000,0.000,0.000,0.0,0,0.0,1
262143,222915,--,0.000,0.000,0.000,0.0,0,0.0,1
262143,223031,--,0.000,0.000,0.000,0.0,0,0.0,1
229376,223037,--,0.000,0.000,0.000,0.0,0,0.0,1
180224,222945,--,0.000,0.000,0.000,0.0,0,0.0,1
131072,222862,--,0.000,0.000,0.000,0.0,0,0.0,1
121160,222802,--,0.000,0.000,0.000,0.0,0,0.0,1
121184,222791,--,0.000,0.000,0.000,0.0,0,0.0,1
121242,222812,--,0.000,0.000,0.000,0.0,0,0.0,1
121325,222847,--,0.000,0.000,0.000,0.0,0,0.0,1
121368,222782,--,0.000,0.000,0.000,0.0,0,0.0,1
121406,222697,--,0.000,0.000,0.000,0.0,0,0.0,1
121438,222593,--,0.000,0.000,0.000,0.0,0,0.0,1
121490,222524,--,0.000,0.000,0.000,0.0,0,0.0,1
121542,222511,--,0.000,0.000,0.000,0.0,0,0.0,1
121507,222410,--,0.000,0.000,0.000,0.0,0,0.0,1
121405,222207,--,0.000,0.000,0.000,0.0,0,0.0,1
121250,221991,--,0.000,0.000,0.000,0.0,0,0.0,1
121068,221714,--,0.000,0.000,0.000,0.0,0,0.0,1
120926,221484,--,0.000,0.000,0.000,0.0,0,0.0,1
120874,221278,--,0.000,0.000,0.000,0.0,0,0.0,1
120919,221191,--,0.000,0.000,0.000,0.0,0,0.0,1
121110,221397,--,0.000,0.000,0.000,0.0,0,0.0,1
121239,221518,--,0.000,0.000,0.000,0.0,0,0.0,1
121354,221684,--,0.000,0.000,0.000,0.0,0,0.0,1
121348,221705,--,0.000,0.000,0.000,0.0,0,0.0,1
121250,221630,--,0.000,0.000,0.000,0.0,0,0.0,1
121147,221550,--,0.000,0.000,0.000,0.0,0,0.0,1
120957,221376,--,0.000,0.000,0.000,0.0,0,0.0,1
120667,221122,--,0.000,0.000,0.000,0.0,0,0.0,1
120341,220864,--,0.000,0.000,0.000,0.0,0,0.0,1
119990,220649,--,0.000,0.000,0.000,0.0,0,0.0,1
119660,220569,--,0.000,0.000,0.000,0.0,0,0.0,1
119429,220778,--,0.000,0.000,0.000,0.0,0,0.0,1
119429,221600,--,0.000,0.000,0.000,0.0,0,0.0,1
119743,223146,--,0.000,0.000,0.000,0.0,0,0.0,1
119816,224600,--,0.000,0.000,0.000,0.0,0,0.0,1
119994,225831,--,0.000,0.000,0.000,0.0,0,0.0,1
119687,226062,--,0.000,0.000,0.000,0.0,0,0.0,1
119347,226172,--,0.000,0.000,0.000,0.0,0,0.0,1
119177,226026,--,0.000,0.000,0.000,0.0,0,0.0,1
119210,225788,--,0.000,0.000,0.000,0.0,0,0.0,1
119063,224944,--,0.000,0.000,0.000,0.0,0,0.0,1
118936,224346,--,0.000,0.000,0.000,0.0,0,0.0,1
119050,224653,--,0.000,0.000,0.000,0.0,0,0.0,1
119147,225005,--,0.000,0.000,0.000,0.0,0,0.0,1
119301,225214,--,0.000,0.000,0.000,0.0,0,0.0,1
119479,225345,--,0.000,0.000,0.000,0.0,0,0.0,1
119648,225472,--,0.000,0.000,0.000,0.0,0,0.0,1
119801,225514,--,0.000,0.000,0.000,0.0,0,0.0,1
119891,225500,--,0.000,0.000,0.000,0.0,0,0.0,1
119921,225447,--,0.000,0.000,0.000,0.0,0,0.0,1
119926,225372,--,0.000,0.000,0.000,0.0,0,0.0,1
119900,225281,--,0.000,0.000,0.000,0.0,0,0.0,1
119874,225174,--,0.000,0.000,0.000,0.0,0,0.0,1
119807,225035,--,0.000,0.000,0.000,0.0,0,0.0,1
119728,224863,--,0.000,0.000,0.000,0.0,0,0.0,1
119619,224684,--,0.000,0.000,0.000,0.0,0,0.0,1
119533,224523,--,0.000,0.000,0.000,0.0,0,0.0,1
119454,224383,--,0.000,0.000,0.000,0.0,0,0.0,1
119380,224243,--,0.000,0.000,0.000,0.0,0,0.0,1
119311,224107,--,0.000,0.000,0.000,0.0,0,0.0,1
119233,223965,--,0.000,0.000,0.000,0.0,0,0.0,1
119147,223793,--,0.000,0.000,0.000,0.0,0,0.0,1
119032,223607,--,0.000,0.000,0.000,0.0,0,0.0,1
118875,223350,--,0.000,0.000,0.000,0.0,0,0.0,1
118718,223091,--,0.000,0.000,0.000,0.0,0,0.0,1
118575,222856,--,0.000,0.000,0.000,0.0,0,0.0,1
118441,222630,--,0.000,0.000,0.000,0.0,0,0.0,1
118324,222424,--,0.000,0.000,0.000,0.0,0,0.0,1
118216,222253,--,0.000,0.000,0.000,0.0,0,0.0,1
118141,222099,--,0.000,0.000,0.000,0.0,0,0.0,1
118098,222000,--,0.000,0.000,0.000,0.0,0,0.0,1
118061,221908,--,0.000,0.000,0.000,0.0,0,0.0,1
118015,221808,--,0.000,0.000,0.000,0.0,0,0.0,1
117965,221693,--,0.000,0.000,0.000,0.0,0,0.0,1
117938,221577,--,0.000,0.000,0.000,0.0,0,0.0,1
117918,221469,--,0.000,0.000,0.000,0.0,0,0.0,1
117909,221385,--,0.000,0.000,0.000,0.0,0,0.0,1
117913,221317,--,0.000,0.000,0.000,0.0,0,0.0,1
117922,221254,--,0.000,0.000,0.000,0.0,0,0.0,1
117932,221173,--,0.000,0.000,0.000,0.0,0,0.0,1
117946,221102,--,0.000,0.000,0.000,0.0,0,0.0,1
117952,221027,--,0.000,0.000,0.000,0.0,0,0.0,1
117968,220978,--,0.000,0.000,0.000,0.0,0,0.0,1
117989,220940,--,0.000,0.000,0.000,0.0,0,0.0,1
118017,220893,--,0.000,0.000,0.000,0.0,0,0.0,1
118025,220861,--,0.000,0.000,0.000,0.0,0,0.0,1
118016,220824,--,0.000,0.000,0.000,0.0,0,0.0,1
117985,220764,--,0.000,0.000,0.000,0.0,0,0.0,1
117902,220664,--,0.000,0.000,0.000,0.0,0,0.0,1
117731,220475,--,0.000,0.000,0.000,0.0,0,0.0,1
117474,220248,--,0.000,0.000,0.000,0.0,0,0.0,1
117229,220003,--,0.000,0.000,0.000,0.0,0,0.0,1
117014,219792,--,0.000,0.000,0.000,0.0,0,0.0,1
116839,219640,--,0.000,0.000,0.000,0.0,0,0.0,1
116717,219515,--,0.000,0.000,0.000,0.0,0,0.0,1
116607,219413,--,0.000,0.000,0.000,0.0,0,0.0,1
116519,219295,--,0.000,0.000,0.000,0.0,0,0.0,1
116447,219205,--,0.000,0.000,0.000,0.0,0,0.0,1
116409,219134,--,0.000,0.000,0.000,0.0,0,0.0,1
116363,219082,--,0.000,0.000,0.000,0.0,0,0.0,1
116338,219022,--,0.000,0.000,0.000,0.0,0,0.0,1
116313,218976,--,0.000,0.000,0.000,0.0,0,0.0,1
116291,218930,--,0.000,0.000,0.000,0.0,0,0.0,1
116282,218919,--,0.000,0.000,0.000,0.0,0,0.0,1
116278,218899,--,0.000,0.000,0.000,0.0,0,0.0,1
116301,218905,--,0.000,0.000,0.000,0.0,0,0.0,1
116311,218910,--,0.000,0.000,0.000,0.0,0,0.0,1
116326,218906,--,0.000,0.000,0.000,0.0,0,0.0,1
116334,218905,--,0.000,0.000,0.000,0.0,0,0.0,1
116359,218897,--,0.000,0.000,0.000,0.0,0,0.0,1
116377,218892,--,0.000,0.000,0.000,0.0,0,0.0,1
116390,218892,--,0.000,0.000,0.000,0.0,0,0.0,1
116398,218902,--,0.000,0.000,0.000,0.0,0,0.0,1
116438,218907,--,0.000,0.000,0.000,0.0,0,0.0,1
116468,218917,--,0.000,0.000,0.000,0.0,0,0.0,1
116522,218951,--,0.000,0.000,0.000,0.0,0,0.0,1
116567,218963,--,0.000,0.000,0.000,0.0,0,0.0,1
116619,219004,--,0.000,0.000,0.000,0.0,0,0.0,1
116661,219021,--,0.000,0.000,0.000,0.0,0,0.0,1
116692,219048,--,0.000,0.000,0.000,0.0,0,0.0,1
116722,219064,--,0.000,0.000,0.000,0.0,0,0.0,1
116716,219066,--,0.000,0.000,0.000,0.0,0,0.0,1
116719,219053,--,0.000,0.000,0.000,0.0,0,0.0,1
116703,219023,--,0.000,0.000,0.000,0.0,0,0.0,1
116686,219017,--,0.000,0.000,0.000,0.0,0,0.0,1
116682,219010,--,0.000,0.000,0.000,0.0,0,0.0,1
116676,219008,--,0.000,0.000,0.000,0.0,0,0.0,1
116684,219025,--,0.000,0.000,0.000,0.0,0,0.0,1
116674,219031,--,0.000,0.000,0.000,0.0,0,0.0,1
116691,219051,--,0.000,0.000,0.000,0.0,0,0.0,1
116703,219054,--,0.000,0.000,0.000,0.0,0,0.0,1
116727,219081,--,0.000,0.000,0.000,0.0,0,0.0,1
116754,219123,--,0.000,0.000,0.000,0.0,0,0.0,1
116797,219167,--,0.000,0.000,0.000,0.0,0,0.0,1
116827,219210,--,0.000,0.000,0.000,0.0,0,0.0,1
116856,219245,--,0.000,0.000,0.000,0.0,0,0.0,1
116882,219274,--,0.000,0.000,0.000,0.0,0,0.0,1
116911,219300,--,0.000,0.000,0.000,0.0,0,0.0,1
116942,219309,--,0.000,0.000,0.000,0.0,0,0.0,1
116970,219337,--,0.000,0.000,0.000,0.0,0,0.0,1
116985,219348,--,0.000,0.000,0.000,0.0,0,0.0,1
117007,219366,--,0.000,0.000,0.000,0.0,0,0.0,1
117016,219366,--,0.000,0.000,0.000,0.0,0,0.0,1
117025,219375,--,0.000,0.000,0.000,0.0,0,0.0,1
117027,219367,--,0.000,0.000,0.000,0.0,0,0.0,1
117035,219355,--,0.000,0.000,0.000,0.0,0,0.0,1
117034,219334,--,0.000,0.000,0.000,0.0,0,0.0,1
117044,219331,--,0.000,0.000,0.000,0.0,0,0.0,1
117051,219345,--,0.000,0.000,0.000,0.0,0,0.0,1
117060,219335,--,0.000,0.000,0.000,0.0,0,0.0,1
117078,219339,--,0.000,0.000,0.000,0.0,0,0.0,1
117105,219345,--,0.000,0.000,0.000,0.0,0,0.0,1
117104,219363,--,0.000,0.000,0.000,0.0,0,0.0,1
117131,219362,--,0.000,0.000,0.000,0.0,0,0.0,1
117161,219375,--,0.000,0.000,0.000,0.0,0,0.0,1
117190,219396,--,0.000,0.000,0.000,0.0,0,0.0,1
117223,219420,--,0.000,0.000,0.000,0.0,0,0.0,1
117259,219445,--,0.000,0.000,0.000,0.0,0,0.0,1
117303,219489,--,0.000,0.000,0.000,0.0,0,0.0,1
117346,219509,--,0.000,0.000,0.000,0.0,0,0.0,1
117395,219542,--,0.000,0.000,0.000,0.0,0,0.0,1
117421,219569,--,0.000,0.000,0.000,0.0,0,0.0,1
117403,219557,--,0.000,0.000,0.000,0.0,0,0.0,1
117338,219496,--,0.000,0.000,0.000,0.0,0,0.0,1
117207,219386,--,0.000,0.000,0.000,0.0,0,0.0,1
117014,219223,--,0.000,0.000,0.000,0.0,0,0.0,1
116814,219042,--,0.000,0.000,0.000,0.0,0,0.0,1
116630,218868,--,0.000,0.000,0.000,0.0,0,0.0,1
116477,218737,--,0.000,0.000,0.000,0.0,0,0.0,1
116362,218641,--,0.000,0.000,0.000,0.0,0,0.0,1
116291,218563,--,0.000,0.000,0.000,0.0,0,0.0,1
116235,218512,--,0.000,0.000,0.000,0.0,0,0.0,1
116199,218490,--,0.000,0.000,0.000,0.0,0,0.0,1
116186,218470,--,0.000,0.000,0.000,0.0,0,0.0,1
116193,218464,--,0.000,0.000,0.000,0.0,0,0.0,1
116201,218465,--,0.000,0.000,0.000,0.0,0,0.0,1
116217,218480,--,0.000,0.000,0.000,0.0,0,0.0,1
116244,218490,--,0.000,0.000,0.000,0.0,0,0.0,1
116267,218507,--,0.000,0.000,0.000,0.0,0,0.0,1
116289,218527,--,0.000,0.000,0.000,0.0,0,0.0,1
116316,218536,--,0.000,0.000,0.000,0.0,0,0.0,1
116340,218555,--,0.000,0.000,0.000,0.0,0,0.0,1
116360,218567,--,0.000,0.000,0.000,0.0,0,0.0,1
116374,218569,--,0.000,0.000,0.000,0.0,0,0.0,1
116398,218582,--,0.000,0.000,0.000,0.0,0,0.0,1
116432,218613,--,0.000,0.000,0.000,0.0,0,0.0,1
116467,218623,--,0.000,0.000,0.000,0.0,0,0.0,1
116501,218657,--,0.000,0.000,0.000,0.0,0,0.0,1
116534,218666,--,0.000,0.000,0.000,0.0,0,0.0,1
116547,218680,--,0.000,0.000,0.000,0.0,0,0.0,1
116573,218693,--,0.000,0.000,0.000,0.0,0,0.0,1
116585,218691,--,0.000,0.000,0.000,0.0,0,0.0,1
116597,218707,--,0.000,0.000,0.000,0.0,0,0.0,1
116612,218700,--,0.000,0.000,0.000,0.0,0,0.0,1
116614,218700,--,0.000,0.000,0.000,0.0,0,0.0,1
116605,218688,--,0.000,0.000,0.000,0.0,0,0.0,1
116581,218660,--,0.000,0.000,0.000,0.0,0,0.0,1
116567,218650,--,0.000,0.000,0.000,0.0,0,0.0,1
116539,218618,--,0.000,0.000,0.000,0.0,0,0.0,1
116520,218589,--,0.000,0.000,0.000,0.0,0,0.0,1
116498,218562,--,0.000,0.000,0.000,0.0,0,0.0,1
116473,218536,--,0.000,0.000,0.000,0.0,0,0.0,1
116469,218528,--,0.000,0.000,0.000,0.0,0,0.0,1
116471,218510,--,0.000,0.000,0.000,0.0,0,0.0,1
116472,218515,--,0.000,0.000,0.000,0.0,0,0.0,1
116480,218518,--,0.000,0.000,0.000,0.0,0,0.0,1
116520,218547,--,0.000,0.000,0.000,0.0,0,0.0,1
116544,218555,--,0.000,0.000,0.000,0.0,0,0.0,1
116569,218580,--,0.000,0.000,0.000,0.0,0,0.0,1
116607,218601,--,0.000,0.000,0.000,0.0,0,0.0,1
116642,218624,--,0.000,0.000,0.000,0.0,0,0.0,1
116669,218628,--,0.000,0.000,0.000,0.0,0,0.0,1
116715,218673,--,0.000,0.000,0.000,0.0,0,0.0,1
116753,218684,--,0.000,0.000,0.000,0.0,0,0.0,1
116784,218715,--,0.000,0.000,0.000,0.0,0,0.0,1
116824,218740,--,0.000,0.000,0.000,0.0,0,0.0,1
116847,218760,--,0.000,0.000,0.000,0.0,0,0.0,1
116877,218777,--,0.000,0.000,0.000,0.0,0,0.0,1
116900,218780,--,0.000,0.000,0.000,0.0,0,0.0,1
116917,218805,--,0.000,0.000,0.000,0.0,0,0.0,1
116954,218820,--,0.000,0.000,0.000,0.0,0,0.0,1
116978,218827,--,0.000,0.000,0.000,0.0,0,0.0,1
117003,218849,--,0.000,0.000,0.000,0.0,0,0.0,1
117034,218871,--,0.000,0.000,0.000,0.0,0,0.0,1
117061,218887,--,0.000,0.000,0.000,0.0,0,0.0,1
117087,218893,--,0.000,0.000,0.000,0.0,0,0.0,1
117109,218919,--,0.000,0.000,0.000,0.0,0,0.0,1
117146,218938,--,0.000,0.000,0.000,0.0,0,0.0,1
117172,218957,--,0.000,0.000,0.000,0.0,0,0.0,1
117197,218976,--,0.000,0.000,0.000,0.0,0,0.0,1
117220,218982,--,0.000,0.000,0.000,0.0,0,0.0,1
117252,218997,--,0.000,0.000,0.000,0.0,0,0.0,1
117252,219017,--,0.000,0.000,0.000,0.0,0,0.0,1
117270,219007,--,0.000,0.000,0.000,0.0,0,0.0,1
117249,219007,--,0.000,0.000,0.000,0.0,0,0.0,1
117199,218954,--,0.000,0.000,0.000,0.0,0,0.0,1
117090,218867,--,0.000,0.000,0.000,0.0,0,0.0,1
116916,218716,--,0.000,0.000,0.000,0.0,0,0.0,1
116690,218519,--,0.000,0.000,0.000,0.0,0,0.0,1
116457,218325,--,0.000,0.000,0.000,0.0,0,0.0,1
116277,218161,--,0.000,0.000,0.000,0.0,0,0.0,1
116146,218046,--,0.000,0.000,0.000,0.0,0,0.0,1
116054,217966,--,0.000,0.000,0.000,0.0,0,0.0,1
115972,217886,--,0.000,0.000,0.000,0.0,0,0.0,1
115927,217846,--,0.000,0.000,0.000,0.0,0,0.0,1
115905,217832,--,0.000,0.000,0.000,0.0,0,0.0,1
115902,217816,--,0.000,0.000,0.000,0.0,0,0.0,1
115908,217826,--,0.000,0.000,0.000,0.0,0,0.0,1
115922,217829,--,0.000,0.000,0.000,0.0,0,0.0,1
115947,217848,--,0.000,0.000,0.000,0.0,0,0.0,1
115978,217882,--,0.000,0.000,0.000,0.0,0,0.0,1
116022,217920,--,0.000,0.000,0.000,0.0,0,0.0,1
116070,217948,--,0.000,0.000,0.000,0.0,0,0.0,1
116117,217990,--,0.000,0.000,0.000,0.0,0,0.0,1
116155,218009,--,0.000,0.000,0.000,0.0,0,0.0,1
116196,218043,--,0.000,0.000,0.000,0.0,0,0.0,1
116235,218065,--,0.000,0.000,0.000,0.0,0,0.0,1
116277,218094,--,0.000,0.000,0.000,0.0,0,0.0,1
116313,218107,--,0.000,0.000,0.000,0.0,0,0.0,1
116346,218128,--,0.000,0.000,0.000,0.0,0,0.0,1
116367,218139,--,0.000,0.000,0.000,0.0,0,0.0,1
116386,218156,--,0.000,0.000,0.000,0.0,0,0.0,1
116394,218173,--,0.000,0.000,0.000,0.0,0,0.0,1
116422,218179,--,0.000,0.000,0.000,0.0,0,0.0,1
116424,218176,--,0.000,0.000,0.000,0.0,0,0.0,1
116411,218165,--,0.000,0.000,0.000,0.0,0,0.0,1
116392,218164,--,0.000,0.000,0.000,0.0,0,0.0,1
116376,218131,--,0.000,0.000,0.000,0.0,0,0.0,1
116354,218110,--,0.000,0.000,0.000,0.0,0,0.0,1
116334,218075,--,0.000,0.000,0.000,0.0,0,0.0,1
116306,218062,--,0.000,0.000,0.000,0.0,0,0.0,1
116279,218034,--,0.000,0.000,0.000,0.0,0,0.0,1
116271,218016,--,0.000,0.000,0.000,0.0,0,0.0,1
116268,218001,--,0.000,0.000,0.000,0.0,0,0.0,1
116261,217991,--,0.000,0.000,0.000,0.0,0,0.0,1
116262,217994,--,0.000,0.000,0.000,0.0,0,0.0,1
116265,217985,--,0.000,0.000,0.000,0.0,0,0.0,1
116273,218009,--,0.000,0.000,0.000,0.0,0,0.0,1
116274,218006,--,0.000,0.000,0.000,0.0,0,0.0,1
116301,218005,--,0.000,0.000,0.000,0.0,0,0.0,1
116311,218025,--,0.000,0.000,0.000,0.0,0,0.0,1
116321,218028,--,0.000,0.000,0.000,0.0,0,0.0,1
116340,218041,--,0.000,0.000,0.000,0.0,0,0.0,1
116347,218046,--,0.000,0.000,0.000,0.0,0,0.0,1
116352,218036,--,0.000,0.000,0.000,0.0,0,0.0,1
116355,218037,--,0.000,0.000,0.000,0.0,0,0.0,1
116362,218047,--,0.000,0.000,0.000,0.0,0,0.0,1
116378,218061,--,0.000,0.000,0.000,0.0,0,0.0,1
116396,218065,--,0.000,0.000,0.000,0.0,0,0.0,1
116413,218078,--,0.000,0.000,0.000,0.0,0,0.0,1
116443,218107,--,0.000,0.000,0.000,0.0,0,0.0,1
116473,218129,--,0.000,0.000,0.000,0.0,0,0.0,1
116505,218150,--,0.000,0.000,0.000,0.0,0,0.0,1
116545,218175,--,0.000,0.000,0.000,0.0,0,0.0,1
116572,218198,--,0.000,0.000,0.000,0.0,0,0.0,1
116604,218209,--,0.000,0.000,0.000,0.0,0,0.0,1
116632,218236,--,0.000,0.000,0.000,0.0,0,0.0,1
116654,218248,--,0.000,0.000,0.000,0.0,0,0.0,1
116670,218261,--,0.000,0.000,0.000,0.0,0,0.0,1
116704,218272,--,0.000,0.000,0.000,0.0,0,0.0,1
116723,218298,--,0.000,0.000,0.000,0.0,0,0.0,1
116744,218306,--,0.000,0.000,0.000,0.0,0,0.0,1
116765,218330,--,0.000,0.000,0.000,0.0,0,0.0,1
116783,218338,--,0.000,0.000,0.000,0.0,0,0.0,1
116801,218338,--,0.000,0.000,0.000,0.0,0,0.0,1
116800,218337,--,0.000,0.000,0.000,0.0,0,0.0,1
116786,218334,--,0.000,0.000,0.000,0.0,0,0.0,1
116732,218285,--,0.000,0.000,0.000,0.0,0,0.0,1
116629,218198,--,0.000,0.000,0.000,0.0,0,0.0,1
116477,218067,--,0.000,0.000,0.000,0.0,0,0.0,1
116294,217920,--,0.000,0.000,0.000,0.0,0,0.0,1
116123,217766,--,0.000,0.000,0.000,0.0,0,0.0,1
115995,217636,--,0.000,0.000,0.000,0.0,0,0.0,1
115876,217542,--,0.000,0.000,0.000,0.0,0,0.0,1
115814,217481,--,0.000,0.000,0.000,0.0,0,0.0,1
115772,217440,--,0.000,0.000,0.000,0.0,0,0.0,1
115749,217429,--,0.000,0.000,0.000,0.0,0,0.0,1
115739,217419,--,0.000,0.000,0.000,0.0,0,0.0,1
115741,217414,--,0.000,0.000,0.000,0.0,0,0.0,1
115753,217436,--,0.000,0.000,0.000,0.0,0,0.0,1
115779,217447,--,0.000,0.000,0.000,0.0,0,0.0,1
115806,217474,--,0.000,0.000,0.000,0.0,0,0.0,1
115827,217479,--,0.000,0.000,0.000,0.0,0,0.0,1
115843,217504,--,0.000,0.000,0.000,0.0,0,0.0,1
115865,217520,--,0.000,0.000,0.000,0.0,0,0.0,1
115885,217525,--,0.000,0.000,0.000,0.0,0,0.0,1
115908,217559,--,0.000,0.000,0.000,0.0,0,0.0,1
115924,217566,--,0.000,0.000,0.000,0.0,0,0.0,1
115940,217573,--,0.000,0.000,0.000,0.0,0,0.0,1
115975,217601,--,0.000,0.000,0.000,0.0,0,0.0,1
116008,217619,--,0.000,0.000,0.000,0.0,0,0.0,1
116044,217656,--,0.000,0.000,0.000,0.0,0,0.0,1
116075,217675,--,0.000,0.000,0.000,0.0,0,0.0,1
116098,217696,--,0.000,0.000,0.000,0.0,0,0.0,1
116119,217712,--,0.000,0.000,0.000,0.0,0,0.0,1
116136,217717,--,0.000,0.000,0.000,0.0,0,0.0,1
116138,217716,--,0.000,0.000,0.000,0.0,0,0.0,1
116141,217717,--,0.000,0.000,0.000,0.0,0,0.0,1
116128,217704,--,0.000,0.000,0.000,0.0,0,0.0,1
116108,217687,--,0.000,0.000,0.000,0.0,0,0.0,1
116100,217677,--,0.000,0.000,0.000,0.0,0,0.0,1
116078,217657,--,0.000,0.000,0.000,0.0,0,0.0,1
116073,217646,--,0.000,0.000,0.000,0.0,0,0.0,1
116066,217636,--,0.000,0.000,0.000,0.0,0,0.0,1
116056,217640,--,0.000,0.000,0.000,0.0,0,0.0,1
116060,217635,--,0.000,0.000,0.000,0.0,0,0.0,1
116077,217649,--,0.000,0.000,0.000,0.0,0,0.0,1
116088,217653,--,0.000,0.000,0.000,0.0,0,0.0,1
116098,217659,--,0.000,0.000,0.000,0.0,0,0.0,1
116112,217681,--,0.000,0.000,0.000,0.0,0,0.0,1
116130,217691,--,0.000,0.000,0.000,0.0,0,0.0,1
116150,217698,--,0.000,0.000,0.000,0.0,0,0.0,1
116179,217728,--,0.000,0.000,0.000,0.0,0,0.0,1
116201,217750,--,0.000,0.000,0.000,0.0,0,0.0,1
116223,217770,--,0.000,0.000,0.000,0.0,0,0.0,1
116242,217770,--,0.000,0.000,0.000,0.0,0,0.0,1
116264,217778,--,0.000,0.000,0.000,0.0,0,0.0,1
116283,217791,--,0.000,0.000,0.000,0.0,0,0.0,1
116301,217798,--,0.000,0.000,0.000,0.0,0,0.0,1
116311,217803,--,0.000,0.000,0.000,0.0,0,0.0,1
116317,217800,--,0.000,0.000,0.000,0.0,0,0.0,1
116316,217806,--,0.000,0.000,0.000,0.0,0,0.0,1
116343,217811,--,0.000,0.000,0.000,0.0,0,0.0,1
116358,217818,--,0.000,0.000,0.000,0.0,0,0.0,1
116362,217823,--,0.000,0.000,0.000,0.0,0,0.0,1
116364,217820,--,0.000,0.000,0.000,0.0,0,0.0,1
116378,217821,--,0.000,0.000,0.000,0.0,0,0.0,1
116395,217829,--,0.000,0.000,0.000,0.0,0,0.0,1
116409,217842,--,0.000,0.000,0.000,0.0,0,0.0,1
116420,217852,--,0.000,0.000,0.000,0.0,0,0.0,1
116441,217853,--,0.000,0.000,0.000,0.0,0,0.0,1
116465,217866,--,0.000,0.000,0.000,0.0,0,0.0,1
116491,217903,--,0.000,0.000,0.000,0.0,0,0.0,1
116518,217914,--,0.000,0.000,0.000,0.0,0,0.0,1
116528,217919,--,0.000,0.000,0.000,0.0,0,0.0,1
116546,217933,--,0.000,0.000,0.000,0.0,0,0.0,1
116562,217937,--,0.000,0.000,0.000,0.0,0,0.0,1
116570,217941,--,0.000,0.000,0.000,0.0,0,0.0,1
116562,217929,--,0.000,0.000,0.000,0.0,0,0.0,1
116520,217901,--,0.000,0.000,0.000,0.0,0,0.0,1
116427,217823,--,0.000,0.000,0.000,0.0,0,0.0,1
116286,217698,--,0.000,0.000,0.000,0.0,0,0.0,1
116116,217542,--,0.000,0.000,0.000,0.0,0,0.0,1
115974,217413,--,0.000,0.000,0.000,0.0,0,0.0,1
115844,217307,--,0.000,0.000,0.000,0.0,0,0.0,1
115757,217229,--,0.000,0.000,0.000,0.0,0,0.0,1
115688,217170,--,0.000,0.000,0.000,0.0,0,0.0,1
115638,217128,--,0.000,0.000,0.000,0.0,0,0.0,1
115605,217104,--,0.000,0.000,0.000,0.0,0,0.0,1
115589,217084,--,0.000,0.000,0.000,0.0,0,0.0,1
115589,217077,--,0.000,0.000,0.000,0.0,0,0.0,1
115598,217090,--,0.000,0.000,0.000,0.0,0,0.0,1
115603,217106,--,0.000,0.000,0.000,0.0,0,0.0,1
115622,217107,--,0.000,0.000,0.000,0.0,0,0.0,1
115635,217117,--,0.000,0.000,0.000,0.0,0,0.0,1
115657,217135,--,0.000,0.000,0.000,0.0,0,0.0,1
115674,217141,--,0.000,0.000,0.000,0.0,0,0.0,1
115684,217156,--,0.000,0.000,0.000,0.0,0,0.0,1
115707,217167,--,0.000,0.000,0.000,0.0,0,0.0,1
115700,217174,--,0.000,0.000,0.000,0.0,0,0.0,1
115717,217172,--,0.000,0.000,0.000,0.0,0,0.0,1
115735,217183,--,0.000,0.000,0.000,0.0,0,0.0,1
115733,217193,--,0.000,0.000,0.000,0.0,0,0.0,1
115759,217204,--,0.000,0.000,0.000,0.0,0,0.0,1
115770,217203,--,0.000,0.000,0.000,0.0,0,0.0,1
115777,217213,--,0.000,0.000,0.000,0.0,0,0.0,1
115816,217239,--,0.000,0.000,0.000,0.0,0,0.0,1
115823,217253,--,0.000,0.000,0.000,0.0,0,0.0,1
115837,217263,--,0.000,0.000,0.000,0.0,0,0.0,1
115857,217275,--,0.000,0.000,0.000,0.0,0,0.0,1
115868,217278,--,0.000,0.000,0.000,0.0,0,0.0,1
115868,217280,--,0.000,0.000,0.000,0.0,0,0.0,1
115866,217271,--,0.000,0.000,0.000,0.0,0,0.0,1
115865,217269,--,0.000,0.000,0.000,0.0,0,0.0,1
115855,217251,--,0.000,0.000,0.000,0.0,0,0.0,1
115848,217243,--,0.000,0.000,0.000,0.0,0,0.0,1
115855,217249,--,0.000,0.000,0.000,0.0,0,0.0,1
115860,217233,--,0.000,0.000,0.000,0.0,0,0.0,1
115860,217236,--,0.000,0.000,0.000,0.0,0,0.0,1
115866,217232,--,0.000,0.000,0.000,0.0,0,0.0,1
115869,217241,--,0.000,0.000,0.000,0.0,0,0.0,1
115885,217242,--,0.000,0.000,0.000,0.0,0,0.0,1
115880,217250,--,0.000,0.000,0.000,0.0,0,0.0,1
115889,217250,--,0.000,0.000,0.000,0.0,0,0.0,1
115901,217267,--,0.000,0.000,0.000,0.0,0,0.0,1
115927,217274,--,0.000,0.000,0.000,0.0,0,0.0,1
115957,217306,--,0.000,0.000,0.000,0.0,0,0.0,1
115993,217324,--,0.000,0.000,0.000,0.0,0,0.0,1
116022,217351,--,0.000,0.000,0.000,0.0,0,0.0,1
116047,217369,--,0.000,0.000,0.000,0.0,0,0.0,1
116083,217394,--,0.000,0.000,0.000,0.0,0,0.0,1
116108,217412,--,0.000,0.000,0.000,0.0,0,0.0,1
116136,217427,--,0.000,0.000,0.000,0.0,0,0.0,1
116149,217448,--,0.000,0.000,0.000,0.0,0,0.0,1
116165,217446,--,0.000,0.000,0.000,0.0,0,0.0,1
116173,217466,--,0.000,0.000,0.000,0.0,0,0.0,1
116206,217475,--,0.000,0.000,0.000,0.0,0,0.0,1
116227,217493,--,0.000,0.000,0.000,0.0,0,0.0,1
116248,217502,--,0.000,0.000,0.000,0.0,0,0.0,1
116260,217504,--,0.000,0.000,0.000,0.0,0,0.0,1
116275,217516,--,0.000,0.000,0.000,0.0,0,0.0,1
116283,217529,--,0.000,0.000,0.000,0.0,0,0.0,1
116307,217547,--,0.000,0.000,0.000,0.0,0,0.0,1
116327,217552,--,0.000,0.000,0.000,0.0,0,0.0,1
116356,217567,--,0.000,0.000,0.000,0.0,0,0.0,1
116382,217589,--,0.000,0.000,0.000,0.0,0,0.0,1
116402,217610,--,0.000,0.000,0.000,0.0,0,0.0,1
116427,217609,--,0.000,0.000,0.000,0.0,0,0.0,1
116450,217636,--,0.000,0.000,0.000,0.0,0,0.0,1
116483,217656,--,0.000,0.000,0.000,0.0,0,0.0,1
116500,217674,--,0.000,0.000,0.000,0.0,0,0.0,1
116514,217690,--,0.000,0.000,0.000,0.0,0,0.0,1
116520,217685,--,0.000,0.000,0.000,0.0,0,0.0,1
116494,217670,--,0.000,0.000,0.000,0.0,0,0.0,1
116420,217596,--,0.000,0.000,0.000,0.0,0,0.0,1
116286,217482,--,0.000,0.000,0.000,0.0,0,0.0,1
116118,217345,--,0.000,0.000,0.000,0.0,0,0.0,1
115952,217194,--,0.000,0.000,0.000,0.0,0,0.0,1
115813,217059,--,0.000,0.000,0.000,0.0,0,0.0,1
115708,216967,--,0.000,0.000,0.000,0.0,0,0.0,1
115626,216910,--,0.000,0.000,0.000,0.0,0,0.0,1
115572,216853,--,0.000,0.000,0.000,0.0,0,0.0,1
115531,216820,--,0.000,0.000,0.000,0.0,0,0.0,1
115506,216791,--,0.000,0.000,0.000,0.0,0,0.0,1
115503,216786,--,0.000,0.000,0.000,0.0,0,0.0,1
115501,216792,--,0.000,0.000,0.000,0.0,0,0.0,1
115511,216792,--,0.000,0.000,0.000,0.0,0,0.0,1
115540,216819,--,0.000,0.000,0.000,0.0,0,0.0,1
115556,216839,--,0.000,0.000,0.000,0.0,0,0.0,1
115562,216852,--,0.000,0.000,0.000,0.0,0,0.0,1
115595,216871,--,0.000,0.000,0.000,0.0,0,0.0,1
115612,216895,--,0.000,0.000,0.000,0.0,0,0.0,1
115639,216915,--,0.000,0.000,0.000,0.0,0,0.0,1
115656,216927,--,0.000,0.000,0.000,0.0,0,0.0,1
115683,216938,--,0.000,0.000,0.000,0.0,0,0.0,1
115692,216953,--,0.000,0.000,0.000,0.0,0,0.0,1
115723,216967,--,0.000,0.000,0.000,0.0,0,0.0,1
115745,216987,--,0.000,0.000,0.000,0.0,0,0.0,3
115772,217003,--,0.000,0.000,0.000,82.3,94,0.0,3
115796,217021,--,0.000,0.000,0.000,82.3,94,0.0,3
115813,217033,--,0.000,0.000,0.000,82.3,94,0.0,3
115829,217049,--,0.000,0.000,0.000,82.3,94,0.0,3
115842,217037,--,0.000,0.000,0.000,82.3,94,0.0,3
115852,217053,--,0.000,0.000,0.000,82.3,94,0.0,3
115852,217053,--,0.000,0.000,0.000,82.3,94,0.0,3
115844,217045,--,0.000,0.000,0.000,82.3,94,0.0,3
115839,217032,--,0.000,0.000,0.000,82.3,94,0.0,3
115835,217035,--,0.000,0.000,0.000,82.3,94,0.0,3
115830,217032,--,0.000,0.000,0.000,82.3,94,0.0,3
115827,217015,--,0.000,0.000,0.000,82.3,94,0.0,3
115830,217020,--,0.000,0.000,0.000,82.3,94,0.0,3
115836,217020,--,0.000,0.000,0.000,82.3,94,0.0,3
115846,217034,--,0.000,0.000,0.000,82.3,94,0.0,3
115852,217029,--,0.000,0.000,0.000,82.3,94,0.0,3
115866,217047,--,0.000,0.000,0.000,82.3,94,0.0,3
115885,217048,--,0.000,0.000,0.000,82.3,94,0.0,3
115902,217067,--,0.000,0.000,0.000,82.3,94,0.0,3
115932,217078,--,0.000,0.000,0.000,82.3,94,0.0,3
115950,217106,--,0.000,0.000,0.000,82.3,94,0.0,3
115967,217118,--,0.000,0.000,0.000,82.3,94,0.0,3
115994,217132,--,0.000,0.000,0.000,82.3,94,0.0,3
116012,217148,--,0.000,0.000,0.000,82.3,94,0.0,3
116032,217175,--,0.000,0.000,0.000,82.3,94,0.0,3
116068,217183,--,0.000,0.000,0.000,81.8,97,0.0,3
116093,217207,--,0.000,0.000,0.000,81.8,97,0.0,3
116125,217232,--,0.000,0.000,0.000,81.8,97,0.0,3
116148,217256,--,0.000,0.000,0.000,81.8,97,0.0,3
116180,217270,--,0.000,0.000,0.000,81.8,97,0.0,3
116203,217278,--,0.000,0.000,0.000,81.8,97,0.0,3
116238,217306,--,0.000,0.000,0.000,81.8,97,0.0,3
116265,217315,--,0.000,0.000,0.000,81.8,97,0.0,3
116292,217331,--,0.000,0.000,0.000,81.8,97,0.0,3
116311,217361,--,0.000,0.000,0.000,81.8,97,0.0,3
116336,217372,--,0.000,0.000,0.000,81.8,97,0.0,3
116351,217381,--,0.000,0.000,0.000,81.8,97,0.0,3
116371,217398,--,0.000,0.000,0.000,81.8,97,0.0,3
116386,217399,--,0.000,0.000,0.000,81.8,97,0.0,3
116404,217413,--,0.000,0.000,0.000,81.8,97,0.0,3
116419,217434,--,0.000,0.000,0.000,81.8,97,0.0,3
116440,217435,--,0.000,0.000,0.000,81.8,97,0.0,3
116459,217451,--,0.000,0.000,0.000,81.8,97,0.0,3
116476,217458,--,0.000,0.000,0.000,81.8,97,0.0,3
116500,217476,--,0.000,0.000,0.000,81.8,97,0.0,3
116514,217491,--,0.000,0.000,0.000,81.8,97,0.0,3
116545,217510,--,0.000,0.000,0.000,81.8,97,0.0,3
116564,217529,--,0.000,0.000,0.000,81.8,97,0.0,3
116590,217545,--,0.000,0.000,0.000,81.8,97,0.0,3
116594,217549,--,0.000,0.000,0.000,81.8,97,0.0,3
116602,217533,--,0.000,0.000,0.000,81.8,97,0.0,3
116582,217521,--,0.000,0.000,0.000,81.8,97,0.0,3
116516,217467,--,0.000,0.000,0.000,81.8,97,0.0,3
116393,217365,--,0.000,0.000,0.000,81.8,97,0.0,3
116228,217223,--,0.000,0.000,0.000,81.8,97,0.0,3
116043,217065,--,0.000,0.000,0.000,81.8,97,0.0,3
115883,216931,--,0.000,0.000,0.000,81.8,97,0.0,3
115771,216824,--,0.000,0.000,0.000,81.8,97,0.0,3
115680,216753,--,0.000,0.000,0.000,81.8,97,0.0,3
115615,216705,--,0.000,0.000,0.000,81.8,97,0.0,3
115582,216664,--,0.000,0.000,0.000,81.8,97,0.0,3
115566,216647,--,0.000,0.000,0.000,81.8,97,0.0,3
115567,216658,--,0.000,0.000,0.000,81.8,97,0.0,3
115574,216666,--,0.000,0.000,0.000,81.8,97,0.0,3
115598,216671,--,0.000,0.000,0.000,81.8,97,0.0,3
115616,216697,--,0.000,0.000,0.000,81.8,97,0.0,3
115638,216712,--,0.000,0.000,0.000,81.8,97,0.0,3
115676,216740,--,0.000,0.000,0.000,81.8,97,0.0,3
115699,216766,--,0.000,0.000,0.000,81.8,97,0.0,3
115718,216775,--,0.000,0.000,0.000,81.8,97,0.0,3
115749,216802,--,0.000,0.000,0.000,81.8,97,0.0,3
115774,216816,--,0.000,0.000,0.000,81.8,97,0.0,3
115790,216838,--,0.000,0.000,0.000,81.8,97,0.0,3
115818,216860,--,0.000,0.000,0.000,81.8,97,0.0,3
115848,216876,--,0.000,0.000,0.000,81.8,97,0.0,3
115887,216895,--,0.000,0.000,0.000,0.0,0,0.0,3
115909,216915,--,0.000,0.000,0.000,81.8,97,0.0,3
115927,216933,--,0.000,0.000,0.000,81.8,97,0.0,3
115952,216950,--,0.000,0.000,0.000,81.8,97,0.0,3
115973,216967,--,0.000,0.000,0.000,81.8,97,0.0,3
115976,216977,--,0.000,0.000,0.000,81.8,97,0.0,3
115977,216970,--,0.000,0.000,0.000,81.8,97,0.0,3
115985,216964,--,0.000,0.000,0.000,81.8,97,0.0,3
115991,216965,--,0.000,0.000,0.000,81.8,97,0.0,3
115981,216964,--,0.000,0.000,0.000,81.8,97,0.0,3
115974,216949,--,0.000,0.000,0.000,81.8,97,0.0,3
115965,216940,--,0.000,0.000,0.000,81.8,97,0.0,3
115952,216938,--,0.000,0.000,0.000,81.8,97,0.0,3
115950,216920,--,0.000,0.000,0.000,81.8,97,0.0,3
115947,216918,--,0.000,0.000,0.000,81.8,97,0.0,3
115948,216910,--,0.000,0.000,0.000,81.8,97,0.0,3
115945,216913,--,0.000,0.000,0.000,81.8,97,0.0,3
115960,216918,--,0.000,0.000,0.000,81.8,97,0.0,3
115972,216920,--,0.000,0.000,0.000,81.8,97,0.0,3
115982,216952,--,0.000,0.000,0.000,81.8,97,0.0,3
116017,216967,--,0.000,0.000,0.000,81.8,97,0.0,3
116035,216973,--,0.000,0.000,0.000,81.8,97,0.0,3
116058,216991,--,0.000,0.000,0.000,81.8,97,0.0,3
116092,217020,--,0.000,0.000,0.000,81.8,97,0.0,3
116116,217034,--,0.000,0.000,0.000,81.8,97,0.0,3
116154,217061,--,0.000,0.000,0.000,81.8,97,0.0,3
116180,217076,--,0.000,0.000,0.000,81.8,97,0.0,3
116206,217093,--,0.000,0.000,0.000,81.8,97,0.0,3
116226,217118,--,0.000,0.000,0.000,81.8,97,0.0,3
116255,217131,--,0.000,0.000,0.000,81.8,97,0.0,3
116280,217154,--,0.000,0.000,0.000,81.8,97,0.0,3
116307,217166,--,0.000,0.000,0.000,81.8,97,0.0,3
116329,217191,--,0.000,0.000,0.000,81.8,97,0.0,3
116356,217193,--,0.000,0.000,0.000,81.8,97,0.0,3
116364,217210,--,0.000,0.000,0.000,81.8,97,0.0,3
116384,217229,--,0.000,0.000,0.000,81.8,97,0.0,3
116398,217226,--,0.000,0.000,0.000,81.8,97,0.0,3
116400,217233,--,0.000,0.000,0.000,81.8,97,0.0,3
116417,217242,--,0.000,0.000,0.000,81.8,97,0.0,3
116423,217236,--,0.000,0.000,0.000,81.8,97,0.0,3
116430,217254,--,0.000,0.000,0.000,81.8,97,0.0,3
116435,217250,--,0.000,0.000,0.000,81.8,97,0.0,3
116446,217260,--,0.000,0.000,0.000,81.8,97,0.0,3
116459,217258,--,0.000,0.000,0.000,81.8,97,0.0,3
116474,217259,--,0.000,0.000,0.000,81.8,97,0.0,3
116485,217274,--,0.000,0.000,0.000,81.8,97,0.0,3
116512,217284,--,0.000,0.000,0.000,81.8,97,0.0,3
116528,217299,--,0.000,0.000,0.000,81.8,97,0.0,3
116545,217321,--,0.000,0.000,0.000,81.8,97,0.0,3
116566,217327,--,0.000,0.000,0.000,81.8,97,0.0,3
116586,217347,--,0.000,0.000,0.000,81.2,98,0.0,3
116602,217358,--,0.000,0.000,0.000,81.2,98,0.0,3
116621,217352,--,0.000,0.000,0.000,81.2,98,0.0,3
116617,217368,--,0.000,0.000,0.000,81.2,98,0.0,3
116612,217358,--,0.000,0.000,0.000,81.2,98,0.0,3
116585,217322,--,0.000,0.000,0.000,81.2,98,0.0,3
116488,217255,--,0.000,0.000,0.000,81.2,98,0.0,3
116344,217131,--,0.000,0.000,0.000,81.2,98,0.0,3
116161,216984,--,0.000,0.000,0.000,81.2,98,0.0,3
115991,216827,--,0.000,0.000,0.000,81.2,98,0.0,3
115856,216715,--,0.000,0.000,0.000,81.2,98,0.0,3
115753,216624,--,0.000,0.000,0.000,81.2,98,0.0,3
115673,216557,--,0.000,0.000,0.000,81.2,98,0.0,3
115625,216513,--,0.000,0.000,0.000,81.2,98,0.0,3
115598,216492,--,0.000,0.000,0.000,81.2,98,0.0,3
115590,216476,--,0.000,0.000,0.000,81.2,98,0.0,3
115601,216491,--,0.000,0.000,0.000,81.2,98,0.0,3
115615,216506,--,0.000,0.000,0.000,81.2,98,0.0,3
115630,216514,--,0.000,0.000,0.000,81.2,98,0.0,3
115654,216544,--,0.000,0.000,0.000,81.2,98,0.0,3
115683,216555,--,0.000,0.000,0.000,81.2,98,0.0,3
115714,216587,--,0.000,0.000,0.000,81.2,98,0.0,3
115739,216598,--,0.000,0.000,0.000,81.2,98,0.0,3
115769,216616,--,0.000,0.000,0.000,81.2,98,0.0,3
115794,216647,--,0.000,0.000,0.000,81.2,98,0.0,3
115812,216653,--,0.000,0.000,0.000,81.2,98,0.0,3
115844,216667,--,0.000,0.000,0.000,81.2,98,0.0,3
115880,216703,--,0.000,0.000,0.000,81.2,98,0.0,3
115907,216738,--,0.000,0.000,0.000,81.2,98,0.0,3
115942,216758,--,0.000,0.000,0.000,81.2,98,0.0,3
115980,216779,--,0.000,0.000,0.000,81.2,98,0.0,3
115996,216795,--,0.000,0.000,0.000,81.2,98,0.0,3
116015,216816,--,0.000,0.000,0.000,81.2,98,0.0,3
116036,216824,--,0.000,0.000,0.000,81.2,98,0.0,3
116046,216828,--,0.000,0.000,0.000,81.2,98,0.0,3
116045,216827,--,0.000,0.000,0.000,81.2,98,0.0,3
116041,216826,--,0.000,0.000,0.000,81.2,98,0.0,3
116031,216816,--,0.000,0.000,0.000,81.2,98,0.0,3
116018,216802,--,0.000,0.000,0.000,81.2,98,0.0,3
115999,216777,--,0.000,0.000,0.000,81.2,98,0.0,3
115985,216759,--,0.000,0.000,0.000,81.2,98,0.0,3
115979,216751,--,0.000,0.000,0.000,81.2,98,0.0,3
115971,216735,--,0.000,0.000,0.000,81.2,98,0.0,3
115974,216739,--,0.000,0.000,0.000,81.2,98,0.0,3
115979,216740,--,0.000,0.000,0.000,81.2,98,0.0,3
115985,216753,--,0.000,0.000,0.000,81.2,98,0.0,3
115994,216762,--,0.000,0.000,0.000,81.2,98,0.0,3
116007,216778,--,0.000,0.000,0.000,81.2,98,0.0,3
116029,216777,--,0.000,0.000,0.000,81.2,98,0.0,3
116060,216797,--,0.000,0.000,0.000,81.2,98,0.0,3
116082,216810,--,0.000,0.000,0.000,81.2,98,0.0,3
116109,216841,--,0.000,0.000,0.000,81.2,98,0.0,3
116150,216855,--,0.000,0.000,0.000,81.2,98,0.0,3
116171,216891,--,0.000,0.000,0.000,81.2,98,0.0,3
116204,216924,--,0.000,0.000,0.000,81.2,98,0.0,3
116233,216942,--,0.000,0.000,0.000,81.2,98,0.0,3
116256,216963,--,0.000,0.000,0.000,81.2,98,0.0,3
116296,216992,--,0.000,0.000,0.000,81.2,98,0.0,3
116333,217009,--,0.000,0.000,0.000,81.2,98,0.0,3
116362,217036,--,0.000,0.000,0.000,81.2,98,0.0,3
116380,217043,--,0.000,0.000,0.000,81.2,98,0.0,3
116404,217065,--,0.000,0.000,0.000,81.2,98,0.0,3
116437,217078,--,0.000,0.000,0.000,81.2,98,0.0,3
116458,217093,--,0.000,0.000,0.000,81.2,98,0.0,3
116475,217110,--,0.000,0.000,0.000,81.2,98,0.0,3
116490,217109,--,0.000,0.000,0.000,81.2,98,0.0,3
116508,217120,--,0.000,0.000,0.000,81.2,98,0.0,3
116512,217129,--,0.000,0.000,0.000,81.2,98,0.0,3
116524,217139,--,0.000,0.000,0.000,81.2,98,0.0,3
116531,217139,--,0.000,0.000,0.000,81.2,98,0.0,3
116530,217133,--,0.000,0.000,0.000,81.2,98,0.0,3
116540,217139,--,0.000,0.000,0.000,81.2,98,0.0,3
116544,217150,--,0.000,0.000,0.000,81.2,98,0.0,3
116565,217153,--,0.000,0.000,0.000,81.2,98,0.0,3
116575,217166,--,0.000,0.000,0.000,81.2,98,0.0,3
116598,217180,--,0.000,0.000,0.000,81.2,98,0.0,3
116626,217202,--,0.000,0.000,0.000,81.2,98,0.0,3
116643,217212,--,0.000,0.000,0.000,81.2,98,0.0,3
116671,217234,--,0.000,0.000,0.000,81.2,98,0.0,3
116696,217237,--,0.000,0.000,0.000,81.2,98,0.0,3
116722,217250,--,0.000,0.000,0.000,81.2,98,0.0,3
116725,217265,--,0.000,0.000,0.000,81.2,98,0.0,3
116740,217260,--,0.000,0.000,0.000,81.2,98,0.0,3
116731,217259,--,0.000,0.000,0.000,81.2,98,0.0,3
116705,217242,--,0.000,0.000,0.000,81.2,98,0.0,3
116618,217178,--,0.000,0.000,0.000,81.2,98,0.0,3
116480,217052,--,0.000,0.000,0.000,81.2,98,0.0,3
116285,216892,--,0.000,0.000,0.000,81.2,98,0.0,3
116102,216734,--,0.000,0.000,0.000,81.2,98,0.0,3
115947,216592,--,0.000,0.000,0.000,81.2,98,0.0,3
115826,216495,--,0.000,0.000,0.000,81.2,98,0.0,3
115746,216427,--,0.000,0.000,0.000,81.2,98,0.0,3
115681,216368,--,0.000,0.000,0.000,81.2,98,0.0,3
115647,216351,--,0.000,0.000,0.000,81.2,98,0.0,3
115639,216322,--,0.000,0.000,0.000,81.2,98,0.0,3
115632,216334,--,0.000,0.000,0.000,81.2,98,0.0,3
115655,216343,--,0.000,0.000,0.000,81.2,98,0.0,3
115687,216372,--,0.000,0.000,0.000,81.2,98,0.0,3
115707,216388,--,0.000,0.000,0.000,81.2,98,0.0,3
115735,216412,--,0.000,0.000,0.000,81.2,98,0.0,3
115771,216448,--,0.000,0.000,0.000,80.6,98,0.0,3
115807,216472,--,0.000,0.000,0.000,80.6,98,0.0,3
115843,216499,--,0.000,0.000,0.000,80.6,98,0.0,3
115875,216527,--,0.000,0.000,0.000,80.6,98,0.0,3
115918,216557,--,0.000,0.000,0.000,80.6,98,0.0,3
115954,216587,--,0.000,0.000,0.000,80.6,98,0.0,3
115992,216624,--,0.000,0.000,0.000,80.6,98,0.0,3
116038,216648,--,0.000,0.000,0.000,80.6,98,0.0,3
116078,216687,--,0.000,0.000,0.000,80.6,98,0.0,3
116119,216712,--,0.000,0.000,0.000,80.6,98,0.0,3
116154,216738,--,0.000,0.000,0.000,80.6,98,0.0,3
116169,216754,--,0.000,0.000,0.000,80.6,98,0.0,3
116167,216761,--,0.000,0.000,0.000,80.6,98,0.0,3
116166,216747,--,0.000,0.000,0.000,80.6,98,0.0,3
116160,216741,--,0.000,0.000,0.000,80.6,98,0.0,3
116142,216721,--,0.000,0.000,0.000,80.6,98,0.0,3
116118,216697,--,0.000,0.000,0.000,80.6,98,0.0,3
116099,216674,--,0.000,0.000,0.000,80.6,98,0.0,3
116070,216653,--,0.000,0.000,0.000,80.6,98,0.0,3
116069,216642,--,0.000,0.000,0.000,80.6,98,0.0,3
116060,216640,--,0.000,0.000,0.000,80.6,98,0.0,3
116058,216636,--,0.000,0.000,0.000,80.6,98,0.0,3
116064,216638,--,0.000,0.000,0.000,80.6,98,0.0,3
116073,216643,--,0.000,0.000,0.000,80.6,98,0.0,3
116081,216651,--,0.000,0.000,0.000,80.6,98,0.0,3
116102,216660,--,0.000,0.000,0.000,80.6,98,0.0,3
116119,216678,--,0.000,0.000,0.000,80.6,98,0.0,3
116142,216690,--,0.000,0.000,0.000,80.6,98,0.0,3
116164,216712,--,0.000,0.000,0.000,80.6,98,0.0,3
116185,216726,--,0.000,0.000,0.000,80.6,98,0.0,3
116207,216738,--,0.000,0.000,0.000,80.6,98,0.0,3
116247,216773,--,0.000,0.000,0.000,80.6,98,0.0,3
116275,216780,--,0.000,0.000,0.000,80.6,98,0.0,3
116291,216803,--,0.000,0.000,0.000,80.6,98,0.0,3
116317,216813,--,0.000,0.000,0.000,80.6,98,0.0,3
116344,216837,--,0.000,0.000,0.000,80.6,98,0.0,3
116377,216853,--,0.000,0.000,0.000,80.6,98,0.0,3
116393,216868,--,0.000,0.000,0.000,80.6,98,0.0,3
116418,216887,--,0.000,0.000,0.000,80.6,98,0.0,3
116434,216902,--,0.000,0.000,0.000,80.6,98,0.0,3
116452,216910,--,0.000,0.000,0.000,80.6,98,0.0,3
116468,216910,--,0.000,0.000,0.000,80.6,98,0.0,3
116479,216928,--,0.000,0.000,0.000,80.6,98,0.0,3
116492,216929,--,0.000,0.000,0.000,80.6,98,0.0,3
116489,216926,--,0.000,0.000,0.000,80.6,98,0.0,3
116502,216939,--,0.000,0.000,0.000,80.6,98,0.0,3
116512,216944,--,0.000,0.000,0.000,80.6,98,0.0,3
116528,216950,--,0.000,0.000,0.000,80.6,98,0.0,3
116527,216956,--,0.000,0.000,0.000,80.6,98,0.0,3
116533,216963,--,0.000,0.000,0.000,80.6,98,0.0,3
116550,216969,--,0.000,0.000,0.000,80.6,98,0.0,3
116562,216972,--,0.000,0.000,0.000,80.6,98,0.0,3
116571,216981,--,0.000,0.000,0.000,80.6,98,0.0,3
116581,216980,--,0.000,0.000,0.000,80.6,98,0.0,3
116592,216989,--,0.000,0.000,0.000,80.6,98,0.0,3
116612,217006,--,0.000,0.000,0.000,80.6,98,0.0,3
116623,217008,--,0.000,0.000,0.000,80.6,98,0.0,3
116634,217016,--,0.000,0.000,0.000,80.6,98,0.0,3
116647,217022,--,0.000,0.000,0.000,80.6,98,0.0,3
116656,217028,--,0.000,0.000,0.000,80.6,98,0.0,3
116655,217021,--,0.000,0.000,0.000,80.6,98,0.0,3
116624,217000,--,0.000,0.000,0.000,80.6,98,0.0,3
116548,216940,--,0.000,0.000,0.000,80.6,98,0.0,3
116400,216811,--,0.000,0.000,0.000,80.6,98,0.0,3
116225,216651,--,0.000,0.000,0.000,80.6,98,0.0,3
116046,216501,--,0.000,0.000,0.000,80.6,98,0.0,3
115904,216382,--,0.000,0.000,0.000,80.6,98,0.0,3
115801,216294,--,0.000,0.000,0.000,80.6,98,0.0,3
115719,216221,--,0.000,0.000,0.000,80.6,98,0.0,3
115664,216166,--,0.000,0.000,0.000,80.6,98,0.0,3
115623,216133,--,0.000,0.000,0.000,80.6,98,0.0,3
115608,216110,--,0.000,0.000,0.000,80.6,98,0.0,3
115598,216119,--,0.000,0.000,0.000,80.6,98,0.0,3
115597,216102,--,0.000,0.000,0.000,80.6,98,0.0,3
115617,216116,--,0.000,0.000,0.000,80.6,98,0.0,3
115636,216137,--,0.000,0.000,0.000,80.6,98,0.0,3
115659,216154,--,0.000,0.000,0.000,80.6,98,0.0,3
115678,216172,--,0.000,0.000,0.000,80.6,98,0.0,3
115713,216194,--,0.000,0.000,0.000,80.6,98,0.0,3
115727,216212,--,0.000,0.000,0.000,80.6,98,0.0,3
115762,216229,--,0.000,0.000,0.000,80.6,98,0.0,3
115791,216244,--,0.000,0.000,0.000,80.6,98,0.0,3
115804,216269,--,0.000,0.000,0.000,80.6,98,0.0,3
115825,216272,--,0.000,0.000,0.000,80.6,98,0.0,3
115844,216288,--,0.000,0.000,0.000,80.6,98,0.0,3
115877,216304,--,0.000,0.000,0.000,80.6,98,97.2,3
115902,216324,--,0.000,0.000,0.000,80.6,98,97.2,3
115916,216352,--,0.000,0.000,0.000,80.6,98,97.2,3
115928,216359,--,0.000,0.000,0.000,80.6,98,97.2,3
115940,216374,--,0.000,0.000,0.000,80.6,98,97.2,3
115954,216363,--,0.000,0.000,0.000,80.6,98,97.2,3
115956,216357,--,0.000,0.000,0.000,80.6,98,97.2,3
115953,216361,--,0.000,0.000,0.000,80.6,98,97.2,3
115952,216356,--,0.000,0.000,0.000,80.6,98,97.2,3
115930,216343,--,0.000,0.000,0.000,80.6,98,97.2,3
115920,216316,--,0.000,0.000,0.000,80.6,98,97.2,3
115904,216297,--,0.000,0.000,0.000,80.6,98,97.2,3
115885,216290,--,0.000,0.000,0.000,80.6,98,97.2,3
115872,216277,--,0.000,0.000,0.000,80.6,98,97.2,3
115874,216267,--,0.000,0.000,0.000,80.6,98,97.2,3
115872,216270,--,0.000,0.000,0.000,78.9,99,97.2,3
115881,216280,--,0.000,0.000,0.000,78.9,99,97.2,3
115892,216277,--,0.000,0.000,0.000,78.9,99,97.2,3
115897,216292,--,0.000,0.000,0.000,78.9,99,97.2,3
115909,216293,--,0.000,0.000,0.000,78.9,99,97.2,3
115921,216300,--,0.000,0.000,0.000,78.9,99,97.2,3
115941,216321,--,0.000,0.000,0.000,78.9,99,97.2,3
115960,216338,--,0.000,0.000,0.000,78.9,99,97.2,3
115982,216343,--,0.000,0.000,0.000,78.9,99,97.2,3
116006,216361,--,0.000,0.000,0.000,78.9,99,97.2,3
116029,216372,--,0.000,0.000,0.000,78.9,99,97.2,3
116055,216390,--,0.000,0.000,0.000,78.9,99,97.2,3
116076,216411,--,0.000,0.000,0.000,78.9,99,97.2,3
116114,216431,--,0.000,0.000,0.000,78.9,99,97.2,3
116138,216463,--,0.000,0.000,0.000,78.9,99,97.2,3
116174,216491,--,0.000,0.000,0.000,78.9,99,97.2,3
116199,216497,--,0.000,0.000,0.000,78.9,99,97.2,3
116225,216525,--,0.000,0.000,0.000,78.9,99,97.2,3
116245,216540,--,0.000,0.000,0.000,78.9,99,97.2,3
116268,216544,--,0.000,0.000,0.000,78.9,99,97.2,3
116279,216558,--,0.000,0.000,0.000,78.9,99,97.2,3
116290,216579,--,0.000,0.000,0.000,78.9,99,97.2,3
116316,216570,--,0.000,0.000,0.000,78.9,99,97.2,3
116317,216580,--,0.000,0.000,0.000,78.9,99,97.2,3
116330,216586,--,0.000,0.000,0.000,78.9,99,97.2,3
116350,216598,--,0.000,0.000,0.000,78.9,99,97.2,3
116366,216613,--,0.000,0.000,0.000,78.9,99,97.2,3
116377,216629,--,0.000,0.000,0.000,78.9,99,97.2,3
116404,216634,--,0.000,0.000,0.000,78.9,99,97.2,3
116414,216656,--,0.000,0.000,0.000,78.9,99,97.2,3
116436,216666,--,0.000,0.000,0.000,78.9,99,97.2,3
116464,216680,--,0.000,0.000,0.000,78.9,99,97.2,3
116481,216683,--,0.000,0.000,0.000,78.9,99,97.2,3
116503,216705,--,0.000,0.000,0.000,78.9,99,97.2,3
116519,216724,--,0.000,0.000,0.000,78.9,99,97.2,3
116547,216737,--,0.000,0.000,0.000,78.9,99,97.2,3
116570,216759,--,0.000,0.000,0.000,78.9,99,97.2,3
116568,216761,--,0.000,0.000,0.000,78.9,99,97.2,3
116545,216740,--,0.000,0.000,0.000,78.9,99,97.2,3
116470,216683,--,0.000,0.000,0.000,78.9,99,97.2,3
116327,216562,--,0.000,0.000,0.000,78.9,99,97.2,3
116151,216400,--,0.000,0.000,0.000,78.9,99,97.2,3
115972,216255,--,0.000,0.000,0.000,78.9,99,97.2,3
115851,216137,--,0.000,0.000,0.000,78.9,99,97.2,3
115753,216052,--,0.000,0.000,0.000,78.9,99,97.2,3
115686,216003,--,0.000,0.000,0.000,78.9,99,97.2,3
115636,215956,--,0.000,0.000,0.000,78.9,99,97.2,3
115607,215943,--,0.000,0.000,0.000,78.9,99,97.2,3
115597,215925,--,0.000,0.000,0.000,78.9,99,97.2,3
115612,215944,--,0.000,0.000,0.000,78.9,99,97.2,3
115616,215956,--,0.000,0.000,0.000,78.9,99,97.2,3
115634,215966,--,0.000,0.000,0.000,78.9,99,97.2,3
115667,215996,--,0.000,0.000,0.000,78.9,99,97.2,3
115690,216017,--,0.000,0.000,0.000,78.9,99,97.2,3
115719,216035,--,0.000,0.000,0.000,78.9,99,97.2,3
115745,216054,--,0.000,0.000,0.000,78.9,99,97.2,3
115778,216077,--,0.000,0.000,0.000,78.9,99,97.2,3
115798,216095,--,0.000,0.000,0.000,78.9,99,97.2,3
115818,216115,--,0.000,0.000,0.000,78.9,99,97.2,3
115854,216143,--,0.000,0.000,0.000,78.9,99,97.2,3
115882,216164,--,0.000,0.000,0.000,78.9,99,97.2,3
115920,216185,--,0.000,0.000,0.000,78.9,99,97.2,3
115951,216218,--,0.000,0.000,0.000,78.9,99,97.0,3
115982,216246,--,0.000,0.000,0.000,78.9,99,97.0,3
116001,216262,--,0.000,0.000,0.000,78.9,99,97.0,3
116031,216276,--,0.000,0.000,0.000,78.9,99,97.0,3
116031,216295,--,0.000,0.000,0.000,78.9,99,97.0,3
116056,216289,--,0.000,0.000,0.000,78.9,99,97.0,3
116047,216283,--,0.000,0.000,0.000,78.9,99,97.0,3
116047,216282,--,0.000,0.000,0.000,78.9,99,97.0,3
116034,216276,--,0.000,0.000,0.000,78.9,99,97.0,3
116011,216263,--,0.000,0.000,0.000,78.9,99,97.0,3
116006,216224,--,0.000,0.000,0.000,78.9,99,97.0,3
115981,216219,--,0.000,0.000,0.000,78.9,99,97.0,3
115978,216212,--,0.000,0.000,0.000,78.9,99,97.0,3
115962,216200,--,0.000,0.000,0.000,78.9,99,97.0,3
115946,216195,--,0.000,0.000,0.000,78.9,99,97.0,3
115967,216200,--,0.000,0.000,0.000,78.9,99,97.0,3
115971,216205,--,0.000,0.000,0.000,78.9,99,97.0,3
115982,216221,--,0.000,0.000,0.000,78.9,99,97.0,3
116013,216222,--,0.000,0.000,0.000,78.9,99,97.0,3
116029,216250,--,0.000,0.000,0.000,78.9,99,97.0,3
116048,216254,--,0.000,0.000,0.000,78.9,99,97.0,3
116080,216285,--,0.000,0.000,0.000,78.9,99,97.0,3
116105,216307,--,0.000,0.000,0.000,78.9,99,97.0,3
116138,216330,--,0.000,0.000,0.000,78.9,99,97.0,3
116163,216354,--,0.000,0.000,0.000,78.9,99,97.0,3
116191,216370,--,0.000,0.000,0.000,78.9,99,97.0,3
116217,216390,--,0.000,0.000,0.000,78.9,99,97.0,3
116247,216412,--,0.000,0.000,0.000,78.9,99,97.0,3
116272,216430,--,0.000,0.000,0.000,78.9,99,97.0,3
116304,216445,--,0.000,0.000,0.000,78.9,99,97.0,3
116323,216475,--,0.000,0.000,0.000,78.9,99,97.0,3
116357,216484,--,0.000,0.000,0.000,78.9,99,97.0,3
116378,216503,--,0.000,0.000,0.000,78.9,99,97.0,3
116407,216526,--,0.000,0.000,0.000,78.9,99,97.0,3
116426,216544,--,0.000,0.000,0.000,78.9,99,97.0,3
116447,216547,--,0.000,0.000,0.000,78.9,99,97.0,3
116462,216562,--,0.000,0.000,0.000,78.9,99,97.0,3
116474,216574,--,0.000,0.000,0.000,78.9,99,97.0,3
116482,216580,--,0.000,0.000,0.000,78.6,99,97.0,3
116514,216601,--,0.000,0.000,0.000,78.6,99,97.0,3
116521,216605,--,0.000,0.000,0.000,78.6,99,97.0,3
116529,216617,--,0.000,0.000,0.000,78.6,99,97.0,3
116551,216628,--,0.000,0.000,0.000,78.6,99,97.0,3
116576,216647,--,0.000,0.000,0.000,78.6,99,97.0,3
116594,216661,--,0.000,0.000,0.000,78.6,99,97.0,3
116615,216677,--,0.000,0.000,0.000,78.6,99,97.0,3
116637,216692,--,0.000,0.000,0.000,78.6,99,97.0,3
116664,216708,--,0.000,0.000,0.000,78.6,99,97.0,3
116692,216723,--,0.000,0.000,0.000,78.6,99,97.0,3
116705,216735,--,0.000,0.000,0.000,78.6,99,97.0,3
116727,216749,--,0.000,0.000,0.000,78.6,99,97.0,3
116743,216755,--,0.000,0.000,0.000,78.6,99,97.0,3
116738,216766,--,0.000,0.000,0.000,78.6,99,97.0,3
116715,216739,--,0.000,0.000,0.000,78.6,99,97.0,3
116647,216677,--,0.000,0.000,0.000,78.6,99,97.0,3
116531,216573,--,0.000,0.000,0.000,78.6,99,97.0,3
116342,216433,--,0.000,0.000,0.000,78.6,99,97.0,3
116136,216264,--,0.000,0.000,0.000,78.6,99,97.0,3
115987,216133,--,0.000,0.000,0.000,78.6,99,97.0,3
115863,216030,--,0.000,0.000,0.000,78.6,99,97.0,3
115776,215957,--,0.000,0.000,0.000,78.6,99,97.0,3
115714,215901,--,0.000,0.000,0.000,78.6,99,97.0,3
115666,215868,--,0.000,0.000,0.000,78.6,99,97.0,3
115649,215845,--,0.000,0.000,0.000,78.6,99,97.0,3
115653,215861,--,0.000,0.000,0.000,78.6,99,97.0,3
115658,215871,--,0.000,0.000,0.000,78.6,99,97.0,3
115682,215889,--,0.000,0.000,0.000,78.6,99,97.0,3
115706,215904,--,0.000,0.000,0.000,78.6,99,97.0,3
115738,215930,--,0.000,0.000,0.000,78.6,99,97.0,3
115763,215955,--,0.000,0.000,0.000,78.6,99,97.0,3
115805,215984,--,0.000,0.000,0.000,78.6,99,97.0,3
115829,216008,--,0.000,0.000,0.000,78.6,99,97.0,3
115869,216033,--,0.000,0.000,0.000,78.6,99,97.0,3
115897,216066,--,0.000,0.000,0.000,78.6,99,97.0,3
115920,216082,--,0.000,0.000,0.000,78.6,99,97.0,3
115959,216107,--,0.000,0.000,0.000,78.6,99,97.0,3
115992,216125,--,0.000,0.000,0.000,78.6,99,97.0,3
116019,216155,--,0.000,0.000,0.000,78.6,99,97.1,3
116050,216184,--,0.000,0.000,0.000,78.6,99,97.1,3
116081,216203,--,0.000,0.000,0.000,78.6,99,97.1,3
116110,216215,--,0.000,0.000,0.000,78.6,99,97.1,3
116134,216237,--,0.000,0.000,0.000,78.6,99,97.1,3
116143,216242,--,0.000,0.000,0.000,78.6,99,97.1,3
116134,216252,--,0.000,0.000,0.000,78.6,99,97.1,3
116137,216234,--,0.000,0.000,0.000,78.6,99,97.1,3
116131,216225,--,0.000,0.000,0.000,78.6,99,97.1,3
116110,216204,--,0.000,0.000,0.000,78.6,99,97.1,3
116094,216196,--,0.000,0.000,0.000,78.6,99,97.1,3
116080,216177,--,0.000,0.000,0.000,78.6,99,97.1,3
116056,216169,--,0.000,0.000,0.000,78.6,99,97.1,3
116050,216158,--,0.000,0.000,0.000,78.6,99,97.1,3
116054,216152,--,0.000,0.000,0.000,78.6,99,97.1,3
116053,216149,--,0.000,0.000,0.000,78.6,99,97.1,3
116063,216153,--,0.000,0.000,0.000,78.6,99,97.1,3
116075,216163,--,0.000,0.000,0.000,78.6,99,97.1,3
116089,216172,--,0.000,0.000,0.000,78.6,99,97.1,3
116107,216191,--,0.000,0.000,0.000,78.6,99,97.1,3
116134,216203,--,0.000,0.000,0.000,78.6,99,97.1,3
116155,216225,--,0.000,0.000,0.000,78.6,99,97.1,3
116194,216256,--,0.000,0.000,0.000,78.6,99,97.1,3
116220,216275,--,0.000,0.000,0.000,78.6,99,97.1,3
116241,216303,--,0.000,0.000,0.000,78.6,99,97.1,3
116277,216316,--,0.000,0.000,0.000,78.6,99,97.1,3
116294,216340,--,0.000,0.000,0.000,78.6,99,97.1,3
116327,216357,--,0.000,0.000,0.000,78.6,99,97.1,3
116354,216383,--,0.000,0.000,0.000,78.6,99,97.1,3
116393,216404,--,0.000,0.000,0.000,78.6,99,97.1,3
116422,216427,--,0.000,0.000,0.000,78.6,99,97.1,3
116450,216450,--,0.000,0.000,0.000,78.6,99,97.1,3
116474,216466,--,0.000,0.000,0.000,78.6,99,97.1,3
116497,216488,--,0.000,0.000,0.000,78.6,99,97.1,3
116532,216503,--,0.000,0.000,0.000,78.6,99,97.1,3
116540,216516,--,0.000,0.000,0.000,78.6,99,97.1,3
116546,216527,--,0.000,0.000,0.000,78.6,99,97.1,3
116564,216525,--,0.000,0.000,0.000,78.6,99,97.1,3
116571,216541,--,0.000,0.000,0.000,78.6,99,97.1,3
116586,216531,--,0.000,0.000,0.000,78.6,99,97.1,3
116593,216550,--,0.000,0.000,0.000,78.6,99,97.1,3
116601,216551,--,0.000,0.000,0.000,78.6,99,97.1,3
116619,216558,--,0.000,0.000,0.000,78.6,99,97.1,3
116622,216572,--,0.000,0.000,0.000,78.6,99,97.1,3
116631,216579,--,0.000,0.000,0.000,78.6,99,97.1,3
116651,216578,--,0.000,0.000,0.000,78.6,99,97.1,3
116665,216589,--,0.000,0.000,0.000,78.6,99,97.1,3
116679,216606,--,0.000,0.000,0.000,78.6,99,97.1,3
116697,216618,--,0.000,0.000,0.000,78.6,99,97.1,3
116727,216642,--,0.000,0.000,0.000,78.6,99,97.1,3
116742,216649,--,0.000,0.000,0.000,78.6,99,97.1,3
116757,216661,--,0.000,0.000,0.000,78.6,99,97.1,3
116762,216655,--,0.000,0.000,0.000,78.6,99,97.1,3
116757,216647,--,0.000,0.000,0.000,78.6,99,97.1,3
116723,216624,--,0.000,0.000,0.000,78.6,99,97.1,3
116627,216548,--,0.000,0.000,0.000,78.6,99,97.1,3
116462,216418,--,0.000,0.000,0.000,78.6,99,97.1,3
116267,216254,--,0.000,0.000,0.000,78.6,99,97.1,3
116093,216103,--,0.000,0.000,0.000,78.6,99,97.1,3
115956,215990,--,0.000,0.000,0.000,78.6,99,97.1,3
115860,215903,--,0.000,0.000,0.000,78.6,99,97.1,3
115775,215848,--,0.000,0.000,0.000,78.3,99,97.1,3
115736,215807,--,0.000,0.000,0.000,78.3,99,97.1,3
115693,215782,--,0.000,0.000,0.000,78.3,99,97.1,3
115683,215769,--,0.000,0.000,0.000,78.3,99,97.1,3
115678,215786,--,0.000,0.000,0.000,78.3,99,97.1,3
115709,215793,--,0.000,0.000,0.000,78.3,99,97.1,3
115732,215816,--,0.000,0.000,0.000,78.3,99,97.1,3
115762,215835,--,0.000,0.000,0.000,78.3,99,97.1,3
115782,215858,--,0.000,0.000,0.000,78.3,99,97.1,3
115811,215883,--,0.000,0.000,0.000,78.3,99,97.1,3
115852,215917,--,0.000,0.000,0.000,78.3,99,97.1,3
115877,215934,--,0.000,0.000,0.000,78.3,99,97.1,3
115908,215964,--,0.000,0.000,0.000,78.3,99,97.1,3
115938,215982,--,0.000,0.000,0.000,78.3,99,97.1,3
115968,216014,--,0.000,0.000,0.000,78.3,99,97.1,3
115997,216029,--,0.000,0.000,0.000,78.3,99,97.1,3
116037,216071,--,0.000,0.000,0.000,78.3,99,97.1,3
116072,216086,--,0.000,0.000,0.000,78.3,99,97.2,3
116104,216115,--,0.000,0.000,0.000,78.3,99,97.2,3
116123,216132,--,0.000,0.000,0.000,78.3,99,97.2,3
116142,216140,--,0.000,0.000,0.000,78.3,99,97.2,3
116147,216144,--,0.000,0.000,0.000,78.3,99,97.2,3
116144,216144,--,0.000,0.000,0.000,78.3,99,97.2,3
116133,216127,--,0.000,0.000,0.000,78.3,99,97.2,3
116123,216109,--,0.000,0.000,0.000,78.3,99,97.2,3
116090,216090,--,0.000,0.000,0.000,78.3,99,97.2,3
116068,216072,--,0.000,0.000,0.000,78.3,99,97.2,3
116044,216051,--,0.000,0.000,0.000,78.3,99,97.2,3
116029,216022,--,0.000,0.000,0.000,78.3,99,97.2,3
116016,216016,--,0.000,0.000,0.000,78.3,99,97.2,3
116013,216018,--,0.000,0.000,0.000,78.3,99,97.2,3
116012,216010,--,0.000,0.000,0.000,78.3,99,97.2,3
115997,216002,--,0.000,0.000,0.000,78.3,99,97.2,3
116008,216014,--,0.000,0.000,0.000,78.3,99,97.2,3
116018,216022,--,0.000,0.000,0.000,78.3,99,97.2,3
116036,216030,--,0.000,0.000,0.000,78.3,99,97.2,3
116059,216040,--,0.000,0.000,0.000,78.3,99,97.2,3
116086,216071,--,0.000,0.000,0.000,78.3,99,97.2,3
116106,216078,--,0.000,0.000,0.000,78.3,99,97.2,3
116129,216109,--,0.000,0.000,0.000,78.3,99,97.2,3
116157,216131,--,0.000,0.000,0.000,78.3,99,97.2,3
116187,216148,--,0.000,0.000,0.000,78.3,99,97.2,3
116214,216157,--,0.000,0.000,0.000,78.3,99,97.2,3
116240,216181,--,0.000,0.000,0.000,78.3,99,97.2,3
116260,216194,--,0.000,0.000,0.000,78.3,99,97.2,3
116281,216198,--,0.000,0.000,0.000,78.3,99,97.2,3
116298,216219,--,0.000,0.000,0.000,78.3,99,97.2,3
116314,216243,--,0.000,0.000,0.000,78.3,99,97.2,3
116333,216235,--,0.000,0.000,0.000,78.3,99,97.2,3
116352,216256,--,0.000,0.000,0.000,78.3,99,97.2,3
116372,216262,--,0.000,0.000,0.000,78.3,99,97.2,3
116385,216277,--,0.000,0.000,0.000,78.3,99,97.2,3
116410,216295,--,0.000,0.000,0.000,78.3,99,97.2,3
116418,216301,--,0.000,0.000,0.000,78.3,99,97.2,3
116430,216319,--,0.000,0.000,0.000,78.3,99,97.2,3
116448,216316,--,0.000,0.000,0.000,78.3,99,97.2,3
116458,216324,--,0.000,0.000,0.000,78.3,99,97.2,3
116472,216330,--,0.000,0.000,0.000,78.3,99,97.2,3
116489,216340,--,0.000,0.000,0.000,78.3,99,97.2,3
116502,216350,--,0.000,0.000,0.000,78.3,99,97.2,3
116518,216361,--,0.000,0.000,0.000,78.3,99,97.2,3
116536,216373,--,0.000,0.000,0.000,78.3,99,97.2,3
116554,216384,--,0.000,0.000,0.000,78.3,99,97.2,3
116570,216392,--,0.000,0.000,0.000,78.3,99,97.2,3
116596,216398,--,0.000,0.000,0.000,78.3,99,97.2,3
116610,216421,--,0.000,0.000,0.000,78.3,99,97.2,3
116625,216433,--,0.000,0.000,0.000,78.3,99,97.2,3
116639,216447,--,0.000,0.000,0.000,78.3,99,97.2,3
116642,216455,--,0.000,0.000,0.000,78.3,99,97.2,3
116646,216443,--,0.000,0.000,0.000,78.3,99,97.2,3
116587,216402,--,0.000,0.000,0.000,78.3,99,97.2,3
116511,216324,--,0.000,0.000,0.000,78.3,99,97.2,3
116356,216213,--,0.000,0.000,0.000,78.3,99,97.2,3
116192,216069,--,0.000,0.000,0.000,78.3,99,97.2,3
116032,215940,--,0.000,0.000,0.000,78.3,99,97.2,3
115914,215853,--,0.000,0.000,0.000,78.3,99,97.2,3
115829,215777,--,0.000,0.000,0.000,78.3,99,97.2,3
115757,215726,--,0.000,0.000,0.000,78.3,99,97.2,3
115710,215689,--,0.000,0.000,0.000,78.3,99,97.2,3
115671,215661,--,0.000,0.000,0.000,78.3,99,97.2,3
115660,215646,--,0.000,0.000,0.000,78.3,99,97.2,3
115663,215651,--,0.000,0.000,0.000,78.3,99,97.2,3
115678,215653,--,0.000,0.000,0.000,78.3,99,97.2,3
115700,215675,--,0.000,0.000,0.000,78.3,99,97.2,3
115719,215710,--,0.000,0.000,0.000,78.3,99,97.2,3
115751,215722,--,0.000,0.000,0.000,78.3,99,97.2,3
115782,215748,--,0.000,0.000,0.000,78.3,99,97.2,3
115806,215767,--,0.000,0.000,0.000,78.3,99,97.2,3
115842,215788,--,0.000,0.000,0.000,78.3,99,97.2,3
115876,215828,--,0.000,0.000,0.000,78.3,99,97.2,3
115901,215840,--,0.000,0.000,0.000,78.3,99,97.2,3
115941,215863,--,0.000,0.000,0.000,78.3,99,97.2,3
115964,215904,--,0.000,0.000,0.000,78.3,99,97.2,3
115997,215919,--,0.000,0.000,0.000,78.3,99,97.2,3
116028,215937,--,0.000,0.000,0.000,78.3,99,97.3,3
116054,215955,--,0.000,0.000,0.000,78.3,99,97.3,3
116067,215975,--,0.000,0.000,0.000,78.3,99,97.3,3
116078,215970,--,0.000,0.000,0.000,78.3,99,97.3,3
116084,215980,--,0.000,0.000,0.000,78.3,99,97.3,3
116077,215974,--,0.000,0.000,0.000,78.3,99,97.3,3
116056,215957,--,0.000,0.000,0.000,77.6,99,97.3,3
116041,215947,--,0.000,0.000,0.000,77.6,99,97.3,3
116014,215920,--,0.000,0.000,0.000,77.6,99,97.3,3
116004,215893,--,0.000,0.000,0.000,77.6,99,97.3,3
115978,215880,--,0.000,0.000,0.000,77.6,99,97.3,3
115963,215850,--,0.000,0.000,0.000,77.6,99,97.3,3
115953,215861,--,0.000,0.000,0.000,77.6,99,97.3,3
115954,215850,--,0.000,0.000,0.000,77.6,99,97.3,3
115956,215839,--,0.000,0.000,0.000,77.6,99,97.3,3
115957,215854,--,0.000,0.000,0.000,77.6,99,97.3,3
115967,215857,--,0.000,0.000,0.000,77.6,99,97.3,3
115986,215871,--,0.000,0.000,0.000,77.6,99,97.3,3
116000,215880,--,0.000,0.000,0.000,77.6,99,97.3,3
116021,215887,--,0.000,0.000,0.000,77.6,99,97.3,3
116048,215912,--,0.000,0.000,0.000,77.6,99,97.3,3
116070,215931,--,0.000,0.000,0.000,77.6,99,97.3,3
116099,215958,--,0.000,0.000,0.000,77.6,99,97.3,3
116128,215977,--,0.000,0.000,0.000,77.6,99,97.3,3
116145,215994,--,0.000,0.000,0.000,77.6,99,97.3,3
116168,216012,--,0.000,0.000,0.000,77.6,99,97.3,3
116186,216024,--,0.000,0.000,0.000,77.6,99,97.3,3
116214,216043,--,0.000,0.000,0.000,77.6,99,97.3,3
116250,216061,--,0.000,0.000,0.000,77.6,99,97.3,3
116263,216086,--,0.000,0.000,0.000,77.6,99,97.3,3
116290,216098,--,0.000,0.000,0.000,77.6,99,97.3,3
116308,216120,--,0.000,0.000,0.000,77.6,99,97.3,3
116327,216124,--,0.000,0.000,0.000,77.6,99,97.3,3
116341,216127,--,0.000,0.000,0.000,77.6,99,97.3,3
116343,216127,--,0.000,0.000,0.000,77.6,99,97.3,3
116347,216134,--,0.000,0.000,0.000,77.6,99,97.3,3
116372,216147,--,0.000,0.000,0.000,77.6,99,97.3,3
116372,216146,--,0.000,0.000,0.000,77.6,99,97.3,3
116379,216149,--,0.000,0.000,0.000,77.6,99,97.3,3
116394,216149,--,0.000,0.000,0.000,77.6,99,97.3,3
116414,216169,--,0.000,0.000,0.000,77.6,99,97.3,3
116428,216183,--,0.000,0.000,0.000,77.6,99,97.3,3
116454,216184,--,0.000,0.000,0.000,77.6,99,97.3,3
116469,216200,--,0.000,0.000,0.000,77.6,99,97.3,3
116488,216206,--,0.000,0.000,0.000,77.6,99,97.3,3
116511,216224,--,0.000,0.000,0.000,77.6,99,97.3,3
116533,216245,--,0.000,0.000,0.000,77.6,99,97.3,3
116557,216258,--,0.000,0.000,0.000,77.6,99,97.3,3
116593,216280,--,0.000,0.000,0.000,77.6,99,97.3,3
116608,216282,--,0.000,0.000,0.000,77.6,99,97.3,3
116624,216284,--,0.000,0.000,0.000,77.6,99,97.3,3
116639,216297,--,0.000,0.000,0.000,77.6,99,97.3,3
116629,216284,--,0.000,0.000,0.000,77.6,99,97.3,3
116568,216236,--,0.000,0.000,0.000,77.6,99,97.3,3
116449,216142,--,0.000,0.000,0.000,77.6,99,97.3,3
116285,216001,--,0.000,0.000,0.000,77.6,99,97.3,3
116109,215860,--,0.000,0.000,0.000,77.6,99,97.3,3
115964,215733,--,0.000,0.000,0.000,77.6,99,97.3,3
115871,215651,--,0.000,0.000,0.000,77.6,99,97.3,3
115804,215599,--,0.000,0.000,0.000,77.6,99,97.3,3
115765,215563,--,0.000,0.000,0.000,77.6,99,97.3,3
115736,215546,--,0.000,0.000,0.000,77.6,99,97.3,3
115763,215578,--,0.000,0.000,0.000,77.6,99,97.3,3
115814,215636,--,0.000,0.000,0.000,77.6,99,97.3,3
115882,215725,--,0.000,0.000,0.000,77.6,99,97.3,3
115979,215839,--,0.000,0.000,0.000,77.6,99,97.3,3
116086,215952,--,0.000,0.000,0.000,77.6,99,97.3,3
116183,216041,--,0.000,0.000,0.000,77.6,99,97.3,3
116287,216122,--,0.000,0.000,0.000,77.6,99,97.3,3
116370,216187,--,0.000,0.000,0.000,77.6,99,97.3,3
116430,216216,--,0.000,0.000,0.000,77.6,99,97.3,3
116490,216252,--,0.000,0.000,0.000,77.6,99,97.3,3
116534,216277,--,0.000,0.000,0.000,77.6,99,97.3,3
116572,216302,--,0.000,0.000,0.000,77.6,99,97.3,3
116637,216351,--,0.000,0.000,0.000,77.6,99,97.3,3
116688,216402,--,0.000,0.000,0.000,77.6,99,97.3,3
116749,216439,--,0.000,0.000,0.000,77.6,99,97.4,3
116800,216476,--,0.000,0.000,0.000,77.6,99,97.4,3
116823,216495,--,0.000,0.000,0.000,77.6,99,97.4,3
116856,216518,--,0.000,0.000,0.000,77.6,99,97.4,3
116856,216513,--,0.000,0.000,0.000,77.6,99,97.4,3
116846,216491,--,0.000,0.000,0.000,77.6,99,97.4,3
116814,216444,--,0.000,0.000,0.000,77.6,99,97.4,3
116759,216398,--,0.000,0.000,0.000,77.6,99,97.4,3
116712,216338,--,0.000,0.000,0.000,77.6,99,97.4,3
116671,216299,--,0.000,0.000,0.000,77.6,99,97.4,3
116633,216286,--,0.000,0.000,0.000,77.6,99,97.4,3
116618,216277,--,0.000,0.000,0.000,77.6,99,97.4,3
116603,216256,--,0.000,0.000,0.000,77.6,99,97.4,3
116581,216247,--,0.000,0.000,0.000,77.6,99,97.4,3
116573,216237,--,0.000,0.000,0.000,77.6,99,97.4,3
116594,216256,--,0.000,0.000,0.000,77.6,99,97.4,3
116623,216281,--,0.000,0.000,0.000,77.6,99,97.4,3
116673,216331,--,0.000,0.000,0.000,77.6,99,97.4,3
116725,216357,--,0.000,0.000,0.000,77.6,99,97.4,3
116754,216385,--,0.000,0.000,0.000,77.6,99,97.4,3
116797,216418,--,0.000,0.000,0.000,77.6,99,97.4,3
116817,216434,--,0.000,0.000,0.000,77.6,99,97.4,3
116847,216442,--,0.000,0.000,0.000,77.6,99,97.4,3
116863,216438,--,0.000,0.000,0.000,77.6,99,97.4,3
116879,216434,--,0.000,0.000,0.000,77.6,99,97.4,3
116884,216435,--,0.000,0.000,0.000,77.6,99,97.4,3
116888,216426,--,0.000,0.000,0.000,77.6,99,97.4,3
116894,216435,--,0.000,0.000,0.000,77.6,99,97.4,3
116907,216434,--,0.000,0.000,0.000,77.6,99,97.4,3
116913,216434,--,0.000,0.000,0.000,77.6,99,97.4,3
116937,216448,--,0.000,0.000,0.000,77.6,99,97.4,3
116951,216466,--,0.000,0.000,0.000,77.6,99,97.4,3
116964,216475,--,0.000,0.000,0.000,77.6,99,97.4,3
116984,216477,--,0.000,0.000,0.000,77.6,99,97.4,3
116995,216495,--,0.000,0.000,0.000,77.6,99,97.4,3
117026,216511,--,0.000,0.000,0.000,77.6,99,97.4,3
117038,216524,--,0.000,0.000,0.000,77.6,99,97.4,3
117061,216534,--,0.000,0.000,0.000,77.6,99,97.4,3
117092,216542,--,0.000,0.000,0.000,77.6,99,97.4,3
117121,216548,--,0.000,0.000,0.000,77.6,99,97.4,3
117148,216572,--,0.000,0.000,0.000,77.6,99,97.4,3
117176,216592,--,0.000,0.000,0.000,77.6,99,97.4,3
117209,216614,--,0.000,0.000,0.000,77.6,99,97.4,3
117254,216632,--,0.000,0.000,0.000,77.6,99,97.4,3
117290,216657,--,0.000,0.000,0.000,77.6,99,97.4,3
117338,216681,--,0.000,0.000,0.000,77.6,99,97.4,3
117370,216714,--,0.000,0.000,0.000,77.6,99,97.4,3
117421,216742,--,0.000,0.000,0.000,77.6,99,97.4,3
117452,216777,--,0.000,0.000,0.000,77.6,99,97.4,3
117485,216799,--,0.000,0.000,0.000,77.6,99,97.4,3
117517,216830,--,0.000,0.000,0.000,77.6,99,97.4,3
117545,216872,--,0.000,0.000,0.000,77.6,99,97.4,3
117557,216911,--,0.000,0.000,0.000,77.6,99,97.4,3
117570,216930,--,0.000,0.000,0.000,77.6,99,97.4,3
117566,216949,--,0.000,0.000,0.000,77.6,99,97.4,3
117544,216927,--,0.000,0.000,0.000,77.6,99,97.4,3
117493,216875,--,0.000,0.000,0.000,77.6,99,97.4,3
117377,216781,--,0.000,0.000,0.000,77.6,99,97.4,3
117169,216615,--,0.000,0.000,0.000,77.6,99,97.4,3
116938,216425,--,0.000,0.000,0.000,77.6,99,97.4,3
116678,216223,--,0.000,0.000,0.000,77.6,99,97.4,3
116486,216069,--,0.000,0.000,0.000,77.6,99,97.4,3
116329,215959,--,0.000,0.000,0.000,77.6,99,97.4,3
116221,215876,--,0.000,0.000,0.000,77.6,99,97.4,3
116164,215835,--,0.000,0.000,0.000,77.6,99,97.4,3
116146,215813,--,0.000,0.000,0.000,77.6,99,97.4,3
116149,215806,--,0.000,0.000,0.000,77.6,99,97.4,3
116169,215817,--,0.000,0.000,0.000,77.6,99,97.4,3
116180,215821,--,0.000,0.000,0.000,77.6,99,97.4,3
116180,215814,--,0.000,0.000,0.000,77.6,99,97.4,3
116179,215779,--,0.000,0.000,0.000,77.6,99,97.4,3
116175,215759,--,0.000,0.000,0.000,77.6,99,97.4,3
116161,215740,--,0.000,0.000,0.000,77.6,99,97.4,3
116156,215726,--,0.000,0.000,0.000,77.6,99,97.4,3
116162,215721,--,0.000,0.000,0.000,77.6,99,97.4,3
116176,215728,--,0.000,0.000,0.000,77.6,99,97.4,3
116213,215753,--,0.000,0.000,0.000,77.6,99,97.4,3
116255,215791,--,0.000,0.000,0.000,77.6,99,97.4,3
116304,215828,--,0.000,0.000,0.000,77.6,99,97.4,3
116353,215879,--,0.000,0.000,0.000,77.6,99,97.4,3
116381,215907,--,0.000,0.000,0.000,77.6,99,97.4,3
116424,215933,--,0.000,0.000,0.000,77.6,99,97.4,3
116448,215953,--,0.000,0.000,0.000,77.6,99,97.4,3
116457,215967,--,0.000,0.000,0.000,77.6,99,97.4,3
116452,215970,--,0.000,0.000,0.000,77.6,99,97.4,3
116435,215957,--,0.000,0.000,0.000,77.6,99,97.4,3
116415,215945,--,0.000,0.000,0.000,77.6,99,97.4,3
116387,215911,--,0.000,0.000,0.000,77.6,99,97.4,3
116367,215897,--,0.000,0.000,0.000,77.6,99,97.4,3
116346,215892,--,0.000,0.000,0.000,77.6,99,97.4,3
116331,215866,--,0.000,0.000,0.000,77.6,99,97.4,3
116314,215846,--,0.000,0.000,0.000,77.6,99,97.4,3
116300,215839,--,0.000,0.000,0.000,77.6,99,97.4,3
116286,215844,--,0.000,0.000,0.000,77.6,99,97.4,3
116292,215850,--,0.000,0.000,0.000,77.6,99,97.4,3
116306,215855,--,0.000,0.000,0.000,77.6,99,97.4,3
116313,215866,--,0.000,0.000,0.000,77.6,99,97.4,3
116313,215862,--,0.000,0.000,0.000,77.6,99,97.4,3
116328,215872,--,0.000,0.000,0.000,77.6,99,97.4,3
116334,215855,--,0.000,0.000,0.000,77.6,99,97.4,3
116338,215837,--,0.000,0.000,0.000,77.6,99,97.4,3
116373,215851,--,0.000,0.000,0.000,77.6,99,97.4,3
116404,215873,--,0.000,0.000,0.000,77.6,99,97.4,3
116439,215903,--,0.000,0.000,0.000,77.6,99,97.4,3
116484,215937,--,0.000,0.000,0.000,77.6,99,97.4,3
116521,215971,--,0.000,0.000,0.000,77.6,99,97.4,3
116561,215998,--,0.000,0.000,0.000,77.6,99,97.4,3
116598,216020,--,0.000,0.000,0.000,77.6,99,97.4,3
116636,216054,--,0.000,0.000,0.000,77.6,99,97.4,3
116669,216087,--,0.000,0.000,0.000,77.6,99,97.4,3
116714,216127,--,0.000,0.000,0.000,77.6,99,97.4,3
116757,216165,--,0.000,0.000,0.000,77.6,99,97.4,3
116807,216213,--,0.000,0.000,0.000,77.6,99,97.4,3
116848,216242,--,0.000,0.000,0.000,77.6,99,97.4,3
116873,216277,--,0.000,0.000,0.000,77.6,99,97.4,3
116902,216294,--,0.000,0.000,0.000,77.6,99,97.4,3
116916,216297,--,0.000,0.000,0.000,77.6,99,97.4,3
116924,216321,--,0.000,0.000,0.000,77.6,99,97.4,3
116929,216325,--,0.000,0.000,0.000,77.6,99,97.4,3
116937,216318,--,0.000,0.000,0.000,77.6,99,97.4,3
116949,216333,--,0.000,0.000,0.000,77.6,99,97.4,3
116958,216330,--,0.000,0.000,0.000,77.6,99,97.4,3
116967,216344,--,0.000,0.000,0.000,77.6,99,97.4,3
117001,216359,--,0.000,0.000,0.000,77.6,99,97.4,3
117013,216381,--,0.000,0.000,0.000,77.6,99,97.4,3
117033,216389,--,0.000,0.000,0.000,77.6,99,97.4,3
117055,216412,--,0.000,0.000,0.000,77.6,99,97.4,3
117075,216418,--,0.000,0.000,0.000,77.6,99,97.4,3
117087,216422,--,0.000,0.000,0.000,77.6,99,97.4,3
117117,216447,--,0.000,0.000,0.000,77.6,99,97.4,3
117144,216458,--,0.000,0.000,0.000,77.5,99,97.4,3
117156,216473,--,0.000,0.000,0.000,77.5,99,97.4,3
117164,216486,--,0.000,0.000,0.000,77.5,99,97.4,3
117171,216494,--,0.000,0.000,0.000,77.5,99,97.4,3
117143,216467,--,0.000,0.000,0.000,77.5,99,97.4,3
117046,216400,--,0.000,0.000,0.000,77.5,99,97.4,3
116882,216269,--,0.000,0.000,0.000,77.5,99,97.4,3
116641,216092,--,0.000,0.000,0.000,77.5,99,97.4,3
116403,215914,--,0.000,0.000,0.000,77.5,99,97.4,3
116197,215732,--,0.000,0.000,0.000,77.5,99,97.4,3
116033,215608,--,0.000,0.000,0.000,77.5,99,97.4,3
115948,215546,--,0.000,0.000,0.000,77.5,99,97.4,3
115899,215507,--,0.000,0.000,0.000,77.5,99,97.4,3
115860,215477,--,0.000,0.000,0.000,77.5,99,97.4,3
115839,215467,--,0.000,0.000,0.000,77.5,99,97.4,3
115840,215469,--,0.000,0.000,0.000,77.5,99,97.4,3
115869,215491,--,0.000,0.000,0.000,77.5,99,97.4,3
115883,215510,--,0.000,0.000,0.000,77.5,99,97.4,3
115925,215546,--,0.000,0.000,0.000,77.5,99,97.4,3
115954,215564,--,0.000,0.000,0.000,77.5,99,97.4,3
115988,215582,--,0.000,0.000,0.000,77.5,99,97.4,3
116027,215626,--,0.000,0.000,0.000,77.5,99,97.4,3
116048,215649,--,0.000,0.000,0.000,77.5,99,97.4,3
116072,215663,--,0.000,0.000,0.000,77.5,99,97.4,3
116103,215678,--,0.000,0.000,0.000,77.5,99,97.4,3
116129,215707,--,0.000,0.000,0.000,77.5,99,97.4,3
116165,215727,--,0.000,0.000,0.000,77.5,99,97.4,3
116214,215769,--,0.000,0.000,0.000,77.5,99,97.4,3
116251,215797,--,0.000,0.000,0.000,77.5,99,97.4,3
116289,215820,--,0.000,0.000,0.000,77.5,99,97.4,3
116334,215867,--,0.000,0.000,0.000,77.5,99,97.4,3
116374,215883,--,0.000,0.000,0.000,77.5,99,97.4,3
116404,215901,--,0.000,0.000,0.000,77.5,99,97.4,3
116433,215938,--,0.000,0.000,0.000,77.5,99,97.4,3
116450,215956,--,0.000,0.000,0.000,77.5,99,97.4,3
116450,215942,--,0.000,0.000,0.000,77.5,99,97.4,3
116446,215950,--,0.000,0.000,0.000,77.5,99,97.4,3
116431,215931,--,0.000,0.000,0.000,77.5,99,97.4,3
116425,215925,--,0.000,0.000,0.000,77.5,99,97.4,3
116405,215919,--,0.000,0.000,0.000,77.5,99,97.4,3
116406,215904,--,0.000,0.000,0.000,77.5,99,97.4,3
116392,215897,--,0.000,0.000,0.000,77.5,99,97.4,3
116401,215904,--,0.000,0.000,0.000,77.5,99,97.4,3
116408,215905,--,0.000,0.000,0.000,77.5,99,97.4,3
116420,215903,--,0.000,0.000,0.000,77.5,99,97.4,3
116443,215928,--,0.000,0.000,0.000,77.5,99,97.4,3
116469,215940,--,0.000,0.000,0.000,77.5,99,97.4,3
116498,215967,--,0.000,0.000,0.000,77.5,99,97.4,3
116535,215996,--,0.000,0.000,0.000,77.5,99,97.4,3
116586,216024,--,0.000,0.000,0.000,77.5,99,97.4,3
116637,216055,--,0.000,0.000,0.000,77.5,99,97.4,3
116674,216094,--,0.000,0.000,0.000,77.5,99,97.4,3
116722,216110,--,0.000,0.000,0.000,77.5,99,97.4,3
116768,216155,--,0.000,0.000,0.000,77.5,99,97.4,3
116811,216179,--,0.000,0.000,0.000,77.5,99,97.4,3
116841,216210,--,0.000,0.000,0.000,77.5,99,97.4,3
116890,216240,--,0.000,0.000,0.000,77.5,99,97.4,3
116930,216251,--,0.000,0.000,0.000,77.5,99,97.4,3
116960,216287,--,0.000,0.000,0.000,77.5,99,97.4,3
116989,216303,--,0.000,0.000,0.000,77.5,99,97.4,3
117018,216317,--,0.000,0.000,0.000,77.5,99,97.4,3
117034,216342,--,0.000,0.000,0.000,77.5,99,97.4,3
117050,216356,--,0.000,0.000,0.000,77.5,99,97.4,3
117082,216369,--,0.000,0.000,0.000,77.5,99,97.4,3
117094,216373,--,0.000,0.000,0.000,77.5,99,97.4,3
117106,216375,--,0.000,0.000,0.000,77.5,99,97.4,3
117116,216392,--,0.000,0.000,0.000,77.5,99,97.4,3
117137,216392,--,0.000,0.000,0.000,77.5,99,97.4,3
117140,216396,--,0.000,0.000,0.000,77.5,99,97.4,3
117159,216411,--,0.000,0.000,0.000,77.5,99,97.4,3
117165,216412,--,0.000,0.000,0.000,77.5,99,97.4,3
117174,216418,--,0.000,0.000,0.000,77.5,99,97.4,3
117188,216430,--,0.000,0.000,0.000,77.5,99,97.4,3
117201,216443,--,0.000,0.000,0.000,77.5,99,97.4,3
117216,216442,--,0.000,0.000,0.000,77.5,99,97.4,3
117235,216454,--,0.000,0.000,0.000,77.5,99,97.4,3
117258,216476,--,0.000,0.000,0.000,77.5,99,97.4,3
117280,216484,--,0.000,0.000,0.000,77.5,99,97.4,3
117301,216499,--,0.000,0.000,0.000,77.5,99,97.4,3
117314,216500,--,0.000,0.000,0.000,77.5,99,97.4,3
117329,216517,--,0.000,0.000,0.000,77.5,99,97.4,3
117353,216530,--,0.000,0.000,0.000,77.5,99,97.4,3
117361,216539,--,0.000,0.000,0.000,77.5,99,97.4,3
117378,216539,--,0.000,0.000,0.000,77.5,99,97.4,3
117383,216543,--,0.000,0.000,0.000,77.5,99,97.4,3
117378,216554,--,0.000,0.000,0.000,77.5,99,97.4,3
117361,216531,--,0.000,0.000,0.000,77.5,99,97.4,3
117291,216487,--,0.000,0.000,0.000,77.5,99,97.4,3
117174,216372,--,0.000,0.000,0.000,77.5,99,97.4,3
116964,216228,--,0.000,0.000,0.000,77.5,99,97.4,3
116694,216019,--,0.000,0.000,0.000,77.5,99,97.4,3
116449,215843,--,0.000,0.000,0.000,77.5,99,97.4,3
116253,215693,--,0.000,0.000,0.000,77.5,99,97.4,3
116112,215566,--,0.000,0.000,0.000,77.5,99,97.4,3
116035,215508,--,0.000,0.000,0.000,77.5,99,97.4,3
116004,215491,--,0.000,0.000,0.000,77.5,99,97.4,3
115988,215478,--,0.000,0.000,0.000,77.5,99,97.4,3
115989,215475,--,0.000,0.000,0.000,77.5,99,97.4,3
116018,215500,--,0.000,0.000,0.000,77.5,99,97.4,3
116052,215529,--,0.000,0.000,0.000,77.5,99,97.4,3
116102,215573,--,0.000,0.000,0.000,77.2,99,97.4,3
116159,215612,--,0.000,0.000,0.000,77.2,99,97.4,3
116213,215663,--,0.000,0.000,0.000,77.2,99,97.4,3
116276,215706,--,0.000,0.000,0.000,77.2,99,97.4,3
116323,215737,--,0.000,0.000,0.000,77.2,99,97.4,3
116375,215782,--,0.000,0.000,0.000,77.2,99,97.4,3
116422,215810,--,0.000,0.000,0.000,77.2,99,97.4,3
116473,215849,--,0.000,0.000,0.000,77.2,99,97.4,3
116537,215897,--,0.000,0.000,0.000,77.2,99,97.4,3
116602,215930,--,0.000,0.000,0.000,77.2,99,97.4,3
116657,215983,--,0.000,0.000,0.000,77.2,99,97.5,3
116726,216028,--,0.000,0.000,0.000,77.2,99,97.5,3
116777,216067,--,0.000,0.000,0.000,77.2,99,97.5,3
116824,216089,--,0.000,0.000,0.000,77.2,99,97.5,3
116852,216110,--,0.000,0.000,0.000,77.2,99,97.5,3
116880,216133,--,0.000,0.000,0.000,77.2,99,97.5,3
116904,216136,--,0.000,0.000,0.000,77.2,99,97.5,3
116895,216143,--,0.000,0.000,0.000,77.2,99,97.5,3
116899,216134,--,0.000,0.000,0.000,77.2,99,97.5,3
116884,216123,--,0.000,0.000,0.000,77.2,99,97.5,3
116877,216112,--,0.000,0.000,0.000,77.2,99,97.5,3
116849,216090,--,0.000,0.000,0.000,77.2,99,97.5,3
116822,216075,--,0.000,0.000,0.000,77.2,99,97.5,3
116825,216064,--,0.000,0.000,0.000,77.2,99,97.5,3
116814,216063,--,0.000,0.000,0.000,77.2,99,97.5,3
116822,216073,--,0.000,0.000,0.000,77.2,99,97.5,3
116821,216068,--,0.000,0.000,0.000,77.2,99,97.5,3
116838,216080,--,0.000,0.000,0.000,77.2,99,97.5,3
116845,216087,--,0.000,0.000,0.000,77.2,99,97.5,3
116864,216095,--,0.000,0.000,0.000,77.2,99,97.5,3
116886,216116,--,0.000,0.000,0.000,77.2,99,97.5,3
116904,216131,--,0.000,0.000,0.000,77.2,99,97.5,3
116932,216149,--,0.000,0.000,0.000,77.2,99,97.5,3
116956,216161,--,0.000,0.000,0.000,77.2,99,97.5,3
116972,216179,--,0.000,0.000,0.000,77.2,99,97.5,3
116998,216192,--,0.000,0.000,0.000,77.2,99,97.5,3
117028,216199,--,0.000,0.000,0.000,77.2,99,97.5,3
117054,216231,--,0.000,0.000,0.000,77.2,99,97.5,3
117063,216243,--,0.000,0.000,0.000,77.2,99,97.5,3
117089,216253,--,0.000,0.000,0.000,77.2,99,97.5,3
117106,216270,--,0.000,0.000,0.000,77.2,99,97.5,3
117131,216283,--,0.000,0.000,0.000,77.2,99,97.5,3
117147,216291,--,0.000,0.000,0.000,77.2,99,97.5,3
117158,216302,--,0.000,0.000,0.000,77.2,99,97.5,3
117179,216313,--,0.000,0.000,0.000,77.2,99,97.5,3
117191,216318,--,0.000,0.000,0.000,77.2,99,97.5,3
117197,216328,--,0.000,0.000,0.000,77.2,99,97.5,3
117198,216320,--,0.000,0.000,0.000,77.2,99,97.5,3
117201,216317,--,0.000,0.000,0.000,77.2,99,97.5,3
117209,216321,--,0.000,0.000,0.000,77.2,99,97.5,3
117203,216322,--,0.000,0.000,0.000,77.2,99,97.5,3
117205,216318,--,0.000,0.000,0.000,77.2,99,97.5,3
117207,216317,--,0.000,0.000,0.000,77.2,99,97.5,3
117206,216310,--,0.000,0.000,0.000,77.2,99,97.5,3
117206,216310,--,0.000,0.000,0.000,77.2,99,97.5,3
117222,216311,--,0.000,0.000,0.000,77.2,99,97.5,3
117216,216314,--,0.000,0.000,0.000,77.2,99,97.5,3
117230,216308,--,0.000,0.000,0.000,77.2,99,97.5,3
117229,216306,--,0.000,0.000,0.000,77.2,99,97.5,3
117248,216316,--,0.000,0.000,0.000,77.2,99,97.5,3
117255,216322,--,0.000,0.000,0.000,77.2,99,97.5,3
117269,216334,--,0.000,0.000,0.000,77.2,99,97.5,3
117282,216344,--,0.000,0.000,0.000,77.2,99,97.5,3
117295,216348,--,0.000,0.000,0.000,77.2,99,97.5,3
117312,216366,--,0.000,0.000,0.000,77.2,99,97.5,3
117325,216376,--,0.000,0.000,0.000,77.2,99,97.5,3
117336,216382,--,0.000,0.000,0.000,77.2,99,97.5,3
117347,216377,--,0.000,0.000,0.000,77.2,99,97.5,3
117344,216377,--,0.000,0.000,0.000,77.2,99,97.5,3
117352,216379,--,0.000,0.000,0.000,77.2,99,97.5,3
117330,216359,--,0.000,0.000,0.000,77.2,99,97.5,3
117282,216306,--,0.000,0.000,0.000,77.2,99,97.5,3
117190,216230,--,0.000,0.000,0.000,77.2,99,97.5,3
117009,216091,--,0.000,0.000,0.000,77.2,99,97.5,3
116731,215868,--,0.000,0.000,0.000,77.2,99,97.5,3
116437,215647,--,0.000,0.000,0.000,77.2,99,97.5,3
116208,215470,--,0.000,0.000,0.000,77.2,99,97.5,3
116031,215317,--,0.000,0.000,0.000,77.2,99,97.5,3
115934,215245,--,0.000,0.000,0.000,77.2,99,97.5,3
115878,215188,--,0.000,0.000,0.000,77.2,99,97.5,3
115843,215163,--,0.000,0.000,0.000,77.2,99,97.5,3
115827,215143,--,0.000,0.000,0.000,77.2,99,97.5,3
115834,215144,--,0.000,0.000,0.000,77.2,99,97.5,3
115852,215169,--,0.000,0.000,0.000,77.2,99,97.5,3
115879,215180,--,0.000,0.000,0.000,77.2,99,97.5,3
115919,215213,--,0.000,0.000,0.000,77.2,99,97.5,3
115950,215249,--,0.000,0.000,0.000,77.2,99,97.5,3
115984,215266,--,0.000,0.000,0.000,77.2,99,97.5,3
116019,215276,--,0.000,0.000,0.000,77.2,99,97.5,3
116054,215301,--,0.000,0.000,0.000,77.2,99,97.5,3
116081,215315,--,0.000,0.000,0.000,77.2,99,97.5,3
116127,215354,--,0.000,0.000,0.000,77.2,99,97.5,3
116173,215387,--,0.000,0.000,0.000,77.2,99,97.5,3
116237,215427,--,0.000,0.000,0.000,77.2,99,97.5,3
116295,215483,--,0.000,0.000,0.000,77.2,99,97.5,3
116343,215518,--,0.000,0.000,0.000,77.2,99,97.7,3
116392,215544,--,0.000,0.000,0.000,77.2,99,97.7,3
116430,215566,--,0.000,0.000,0.000,77.2,99,97.7,3
116460,215584,--,0.000,0.000,0.000,77.2,99,97.7,3
116481,215589,--,0.000,0.000,0.000,77.2,99,97.7,3
116476,215587,--,0.000,0.000,0.000,76.1,99,97.7,3
116467,215578,--,0.000,0.000,0.000,76.1,99,97.7,3
116458,215553,--,0.000,0.000,0.000,76.1,99,97.7,3
116421,215516,--,0.000,0.000,0.000,76.1,99,97.7,3
116394,215486,--,0.000,0.000,0.000,76.1,99,97.7,3
116365,215450,--,0.000,0.000,0.000,76.1,99,97.7,3
116335,215435,--,0.000,0.000,0.000,76.1,99,97.7,3
116323,215411,--,0.000,0.000,0.000,76.1,99,97.7,3
116320,215410,--,0.000,0.000,0.000,76.1,99,97.7,3
116332,215409,--,0.000,0.000,0.000,76.1,99,97.7,3
116343,215413,--,0.000,0.000,0.000,76.1,99,97.7,3
116357,215420,--,0.000,0.000,0.000,76.1,99,97.7,3
116384,215434,--,0.000,0.000,0.000,76.1,99,97.7,3
116403,215438,--,0.000,0.000,0.000,76.1,99,97.7,3
116429,215449,--,0.000,0.000,0.000,76.1,99,97.7,3
116464,215469,--,0.000,0.000,0.000,76.1,99,97.7,3
116499,215497,--,0.000,0.000,0.000,76.1,99,97.7,3
116533,215498,--,0.000,0.000,0.000,76.1,99,97.7,3
116573,215528,--,0.000,0.000,0.000,76.1,99,97.7,3
116616,215538,--,0.000,0.000,0.000,76.1,99,97.7,3
116668,215569,--,0.000,0.000,0.000,76.1,99,97.7,3
116720,215598,--,0.000,0.000,0.000,76.1,99,97.7,3
116770,215630,--,0.000,0.000,0.000,76.1,99,97.7,3
116824,215658,--,0.000,0.000,0.000,76.1,99,97.7,3
116867,215687,--,0.000,0.000,0.000,76.1,99,97.7,3
116917,215716,--,0.000,0.000,0.000,76.1,99,97.7,3
116969,215757,--,0.000,0.000,0.000,76.1,99,97.7,3
117015,215779,--,0.000,0.000,0.000,76.1,99,97.7,3
117073,215811,--,0.000,0.000,0.000,76.1,99,97.7,3
117120,215828,--,0.000,0.000,0.000,76.1,99,97.7,3
117171,215858,--,0.000,0.000,0.000,76.1,99,97.7,3
117206,215881,--,0.000,0.000,0.000,76.1,99,97.7,3
117246,215903,--,0.000,0.000,0.000,76.1,99,97.7,3
117288,215924,--,0.000,0.000,0.000,76.1,99,97.7,3
117330,215951,--,0.000,0.000,0.000,76.1,99,97.7,3
117346,215964,--,0.000,0.000,0.000,76.1,99,97.7,3
117381,215973,--,0.000,0.000,0.000,76.1,99,97.7,3
117405,215997,--,0.000,0.000,0.000,76.1,99,97.7,3
117427,216003,--,0.000,0.000,0.000,76.1,99,97.7,3
117437,216017,--,0.000,0.000,0.000,76.1,99,97.7,3
117444,216019,--,0.000,0.000,0.000,76.1,99,97.7,3
117455,216023,--,0.000,0.000,0.000,76.1,99,97.7,3
117474,216024,--,0.000,0.000,0.000,76.1,99,97.7,3
117491,216046,--,0.000,0.000,0.000,76.1,99,97.7,3
117508,216057,--,0.000,0.000,0.000,76.1,99,97.7,3
117533,216067,--,0.000,0.000,0.000,76.1,99,97.7,3
117551,216071,--,0.000,0.000,0.000,76.1,99,97.7,3
117568,216086,--,0.000,0.000,0.000,76.1,99,97.7,3
117570,216073,--,0.000,0.000,0.000,76.1,99,97.7,3
117578,216096,--,0.000,0.000,0.000,76.1,99,97.7,3
117590,216098,--,0.000,0.000,0.000,76.1,99,97.7,3
117588,216095,--,0.000,0.000,0.000,76.1,99,97.7,3
117590,216091,--,0.000,0.000,0.000,76.1,99,97.7,3
117583,216079,--,0.000,0.000,0.000,76.1,99,97.7,3
117564,216070,--,0.000,0.000,0.000,76.1,99,97.7,3
117529,216039,--,0.000,0.000,0.000,76.1,99,97.7,3
117458,215984,--,0.000,0.000,0.000,76.1,99,97.7,3
117295,215856,--,0.000,0.000,0.000,76.1,99,97.7,3
116998,215645,--,0.000,0.000,0.000,76.1,99,97.7,3
116669,215388,--,0.000,0.000,0.000,76.1,99,97.7,3
116367,215153,--,0.000,0.000,0.000,76.1,99,97.7,3
116155,214991,--,0.000,0.000,0.000,76.1,99,97.7,3
116013,214866,--,0.000,0.000,0.000,76.1,99,97.7,3
115939,214824,--,0.000,0.000,0.000,76.1,99,97.7,3
115909,214788,--,0.000,0.000,0.000,76.1,99,97.7,3
115893,214783,--,0.000,0.000,0.000,76.1,99,97.7,3
115895,214774,--,0.000,0.000,0.000,76.1,99,97.7,3
115922,214794,--,0.000,0.000,0.000,76.1,99,97.7,3
115949,214816,--,0.000,0.000,0.000,76.1,99,97.7,3
115998,214852,--,0.000,0.000,0.000,76.1,99,97.7,3
116024,214888,--,0.000,0.000,0.000,76.1,99,97.7,3
116063,214926,--,0.000,0.000,0.000,76.1,99,97.7,3
116098,214952,--,0.000,0.000,0.000,76.1,99,97.7,3
116114,214971,--,0.000,0.000,0.000,76.1,99,97.7,3
116145,214983,--,0.000,0.000,0.000,76.1,99,97.7,3
116157,215003,--,0.000,0.000,0.000,76.1,99,97.7,3
116177,215027,--,0.000,0.000,0.000,76.1,99,97.7,3
116204,215048,--,0.000,0.000,0.000,76.1,99,97.7,3
116248,215081,--,0.000,0.000,0.000,76.1,99,97.7,3
116285,215109,--,0.000,0.000,0.000,76.1,99,97.7,3
116317,215142,--,0.000,0.000,0.000,76.1,99,97.7,3
116355,215164,--,0.000,0.000,0.000,76.1,99,97.7,3
116380,215197,--,0.000,0.000,0.000,76.1,99,97.7,3
116417,215218,--,0.000,0.000,0.000,76.1,99,97.7,3
116423,215217,--,0.000,0.000,0.000,76.1,99,97.7,3
116422,215223,--,0.000,0.000,0.000,76.1,99,97.7,3
116432,215218,--,0.000,0.000,0.000,76.1,99,97.7,3
116427,215226,--,0.000,0.000,0.000,76.1,99,97.7,3
116420,215211,--,0.000,0.000,0.000,76.1,99,97.7,3
116394,215202,--,0.000,0.000,0.000,76.1,99,97.7,3
116387,215185,--,0.000,0.000,0.000,76.1,99,97.7,3
116390,215193,--,0.000,0.000,0.000,76.1,99,97.7,3
116402,215198,--,0.000,0.000,0.000,76.1,99,97.7,3
116413,215205,--,0.000,0.000,0.000,76.1,99,97.7,3
116428,215219,--,0.000,0.000,0.000,76.1,99,97.7,3
116464,215241,--,0.000,0.000,0.000,76.1,99,97.7,3
116504,215267,--,0.000,0.000,0.000,76.1,99,97.7,3
116558,215309,--,0.000,0.000,0.000,76.1,99,97.7,3
116630,215353,--,0.000,0.000,0.000,76.1,99,97.7,3
116704,215406,--,0.000,0.000,0.000,76.1,99,97.7,3
116781,215443,--,0.000,0.000,0.000,75.6,99,97.7,3
116858,215522,--,0.000,0.000,0.000,75.6,99,97.7,3
116949,215575,--,0.000,0.000,0.000,75.6,99,97.7,3
117033,215628,--,0.000,0.000,0.000,75.6,99,97.7,3
117107,215685,--,0.000,0.000,0.000,75.6,99,97.7,3
117176,215729,--,0.000,0.000,0.000,75.6,99,97.7,3
117225,215769,--,0.000,0.000,0.000,75.6,99,97.7,3
117278,215805,--,0.000,0.000,0.000,75.6,99,97.7,3
117323,215825,--,0.000,0.000,0.000,75.6,99,97.7,3
117351,215845,--,0.000,0.000,0.000,75.6,99,97.7,3
117382,215873,--,0.000,0.000,0.000,75.6,99,97.7,3
117420,215894,--,0.000,0.000,0.000,75.6,99,97.7,3
117444,215904,--,0.000,0.000,0.000,75.6,99,97.7,3
117466,215926,--,0.000,0.000,0.000,75.6,99,97.7,3
117497,215925,--,0.000,0.000,0.000,75.6,99,97.7,3
117504,215946,--,0.000,0.000,0.000,75.6,99,97.7,3
117528,215957,--,0.000,0.000,0.000,75.6,99,97.7,3
117536,215968,--,0.000,0.000,0.000,75.6,99,97.7,3
117535,215969,--,0.000,0.000,0.000,75.6,99,97.7,3
117547,215967,--,0.000,0.000,0.000,75.6,99,97.7,3
117552,215975,--,0.000,0.000,0.000,75.6,99,97.7,3
117553,215987,--,0.000,0.000,0.000,75.6,99,97.7,3
117555,215987,--,0.000,0.000,0.000,75.6,99,97.7,3
117556,215998,--,0.000,0.000,0.000,75.6,99,97.7,3
117572,216009,--,0.000,0.000,0.000,75.6,99,97.7,3
117579,216026,--,0.000,0.000,0.000,75.6,99,97.7,3
117589,216026,--,0.000,0.000,0.000,75.6,99,97.7,3
117599,216042,--,0.000,0.000,0.000,75.6,99,97.7,3
117605,216055,--,0.000,0.000,0.000,75.6,99,97.7,3
117617,216048,--,0.000,0.000,0.000,75.6,99,97.7,3
117625,216052,--,0.000,0.000,0.000,75.6,99,97.7,3
117653,216070,--,0.000,0.000,0.000,75.6,99,97.7,3
117665,216076,--,0.000,0.000,0.000,75.6,99,97.7,3
117693,216081,--,0.000,0.000,0.000,75.6,99,97.7,3
117691,216079,--,0.000,0.000,0.000,75.6,99,97.7,3
117710,216078,--,0.000,0.000,0.000,75.6,99,97.7,3
117713,216064,--,0.000,0.000,0.000,75.6,99,97.7,3
117705,216049,--,0.000,0.000,0.000,75.6,99,97.7,3
117694,216016,--,0.000,0.000,0.000,75.6,99,97.7,3
117653,215977,--,0.000,0.000,0.000,75.6,99,97.7,3
117581,215905,--,0.000,0.000,0.000,75.6,99,97.7,3
117430,215769,--,0.000,0.000,0.000,75.6,99,97.7,3
117145,215538,--,0.000,0.000,0.000,75.6,99,97.7,3
116765,215213,--,0.000,0.000,0.000,75.6,99,97.7,3
116410,214943,--,0.000,0.000,0.000,75.6,99,97.7,3
116148,214715,--,0.000,0.000,0.000,75.6,99,97.7,3
115975,214547,--,0.000,0.000,0.000,75.6,99,97.7,3
115878,214456,--,0.000,0.000,0.000,75.6,99,97.7,3
115828,214398,--,0.000,0.000,0.000,75.6,99,97.7,3
115806,214371,--,0.000,0.000,0.000,75.6,99,97.7,3
115800,214346,--,0.000,0.000,0.000,75.6,99,97.7,3
115830,214372,--,0.000,0.000,0.000,75.6,99,97.7,3
115870,214388,--,0.000,0.000,0.000,75.6,99,97.7,3
115919,214413,--,0.000,0.000,0.000,75.6,99,97.7,3
115985,214472,--,0.000,0.000,0.000,75.6,99,97.7,3
116059,214524,--,0.000,0.000,0.000,75.6,99,97.7,3
116118,214585,--,0.000,0.000,0.000,75.6,99,97.7,3
116178,214638,--,0.000,0.000,0.000,75.6,99,97.7,3
116245,214699,--,0.000,0.000,0.000,75.6,99,97.7,3
