Auto Gain Control OFF,IR PA (mA)=10,Red PA (mA)=10,Sample Rate (Hz)=100,Pulse Width (usec)=400,FIFO Almost Full=17,FIFO Rolls on Full=Not Checked,Sample Averaging=1
IR Count, Red Count, Green Count, X Axis Acceleration, Y Axis Acceleration, Z Axis Acceleration, Heart Rate, HR Confidence, SPO2, Algorithm Status
155894,139488,--,0.925,0.308,-0.207,0.0,0,98.5,3
172248,155898,--,0.925,0.308,-0.207,0.0,0,98.5,3
188627,172211,--,0.925,0.308,-0.207,0.0,0,98.5,3
205049,188643,--,0.926,0.308,-0.206,0.0,0,98.5,3
221414,205060,--,0.926,0.308,-0.206,0.0,0,98.5,3
237801,221427,--,0.926,0.308,-0.206,0.0,0,98.5,3
254170,226476,--,0.926,0.308,-0.206,0.0,0,98.5,3
262143,226473,--,0.925,0.308,-0.208,0.0,0,98.5,3
262143,226463,--,0.925,0.308,-0.208,0.0,0,98.5,3
262143,226457,--,0.925,0.308,-0.208,0.0,0,98.5,3
262143,226461,--,0.925,0.308,-0.208,0.0,0,98.5,3
262143,226454,--,0.928,0.307,-0.207,0.0,0,98.5,3
262143,226459,--,0.931,0.306,-0.204,0.0,0,98.5,3
262143,226439,--,0.932,0.306,-0.200,0.0,0,98.5,3
262143,226439,--,0.929,0.307,-0.200,0.0,0,98.5,3
262143,226411,--,0.924,0.308,-0.202,0.0,0,98.5,3
262143,226381,--,0.925,0.308,-0.204,0.0,0,98.5,3
262143,226346,--,0.929,0.306,-0.203,0.0,0,98.5,3
262143,226329,--,0.929,0.306,-0.203,0.0,0,98.5,3
262143,226317,--,0.929,0.306,-0.203,0.0,0,98.5,3
262143,226286,--,0.929,0.306,-0.203,0.0,0,98.5,3
262143,226262,--,0.929,0.306,-0.203,0.0,0,98.5,3
262143,226221,--,0.929,0.306,-0.203,0.0,0,98.5,3
262143,226207,--,0.929,0.306,-0.203,0.0,0,98.5,3
262143,226185,--,0.929,0.306,-0.203,0.0,0,98.5,3
262143,226154,--,0.925,0.306,-0.207,0.0,0,98.5,3
262143,226142,--,0.925,0.306,-0.207,0.0,0,98.5,3
262143,226135,--,0.925,0.306,-0.207,0.0,0,98.5,3
262143,226139,--,0.925,0.306,-0.207,0.0,0,98.5,3
229376,226133,--,0.925,0.306,-0.207,0.0,0,98.5,3
180224,226145,--,0.926,0.306,-0.205,0.0,0,98.5,3
166671,226147,--,0.927,0.306,-0.204,0.0,0,98.5,3
166678,226153,--,0.927,0.306,-0.205,0.0,0,98.5,3
166688,226156,--,0.929,0.305,-0.207,0.0,0,98.5,3
166688,226156,--,0.931,0.305,-0.205,0.0,0,98.5,3
166696,226161,--,0.931,0.305,-0.205,0.0,0,98.5,3
166708,226165,--,0.927,0.307,-0.204,0.0,0,98.5,3
166712,226163,--,0.927,0.307,-0.204,0.0,0,98.5,3
166717,226168,--,0.927,0.307,-0.204,0.0,0,98.5,3
166714,226161,--,0.927,0.307,-0.204,0.0,0,98.5,3
166720,226160,--,0.923,0.309,-0.206,0.0,0,98.5,3
166735,226153,--,0.923,0.309,-0.206,0.0,0,98.5,3
166730,226160,--,0.923,0.309,-0.206,0.0,0,98.5,3
166737,226159,--,0.923,0.309,-0.206,0.0,0,98.5,3
166747,226166,--,0.924,0.308,-0.208,0.0,0,98.5,3
166759,226163,--,0.924,0.308,-0.208,0.0,0,98.5,3
166769,226182,--,0.926,0.307,-0.209,0.0,0,98.5,3
166769,226185,--,0.925,0.307,-0.211,0.0,0,98.5,3
166778,226191,--,0.924,0.307,-0.211,0.0,0,98.5,3
166784,226185,--,0.927,0.307,-0.209,0.0,0,98.5,3
166780,226187,--,0.928,0.307,-0.208,0.0,0,98.5,3
166771,226177,--,0.927,0.307,-0.208,0.0,0,98.5,3
166774,226189,--,0.927,0.307,-0.208,0.0,0,98.5,3
166782,226182,--,0.927,0.307,-0.208,0.0,0,98.5,3
166772,226177,--,0.927,0.307,-0.208,0.0,0,98.5,3
166783,226177,--,0.926,0.307,-0.209,0.0,0,98.5,3
166779,226172,--,0.926,0.307,-0.209,0.0,0,98.5,3
166791,226178,--,0.926,0.307,-0.209,0.0,0,98.5,3
166796,226185,--,0.926,0.307,-0.209,0.0,0,98.5,3
166795,226184,--,0.927,0.307,-0.210,0.0,0,98.5,3
166796,226165,--,0.927,0.307,-0.210,0.0,0,98.5,3
166802,226164,--,0.927,0.307,-0.210,0.0,0,0.0,3
166801,226158,--,0.927,0.307,-0.210,0.0,0,0.0,3
166815,226166,--,0.926,0.307,-0.210,0.0,0,0.0,3
166826,226179,--,0.926,0.308,-0.210,0.0,0,0.0,3
166848,226186,--,0.926,0.308,-0.210,0.0,0,0.0,3
166860,226207,--,0.927,0.307,-0.210,0.0,0,0.0,3
166882,226209,--,0.927,0.307,-0.210,0.0,0,0.0,3
166889,226205,--,0.927,0.307,-0.210,0.0,0,0.0,3
166892,226206,--,0.927,0.307,-0.210,0.0,0,0.0,3
166896,226195,--,0.927,0.306,-0.210,0.0,0,0.0,3
166900,226189,--,0.927,0.306,-0.210,0.0,0,0.0,3
166908,226195,--,0.927,0.306,-0.210,0.0,0,0.0,3
166917,226208,--,0.927,0.306,-0.210,0.0,0,0.0,3
166916,226208,--,0.926,0.306,-0.212,0.0,0,0.0,3
166931,226220,--,0.926,0.306,-0.212,0.0,0,0.0,3
166940,226216,--,0.926,0.306,-0.212,0.0,0,0.0,3
166960,226231,--,0.926,0.306,-0.212,0.0,0,0.0,3
166983,226231,--,0.927,0.306,-0.210,0.0,0,0.0,3
166982,226246,--,0.927,0.306,-0.210,0.0,0,0.0,3
166989,226236,--,0.928,0.306,-0.208,0.0,0,0.0,3
166987,226238,--,0.926,0.307,-0.210,0.0,0,0.0,3
166996,226236,--,0.925,0.307,-0.212,0.0,0,0.0,3
166996,226225,--,0.924,0.307,-0.212,0.0,0,0.0,3
166996,226231,--,0.924,0.308,-0.213,0.0,0,0.0,3
166998,226211,--,0.927,0.308,-0.212,0.0,0,0.0,3
167008,226228,--,0.927,0.308,-0.212,0.0,0,0.0,3
167014,226230,--,0.927,0.308,-0.212,0.0,0,0.0,3
167037,226234,--,0.927,0.308,-0.210,0.0,0,0.0,3
167051,226251,--,0.927,0.308,-0.210,0.0,0,0.0,3
167059,226255,--,0.927,0.308,-0.210,0.0,0,0.0,3
167044,226249,--,0.927,0.308,-0.210,0.0,0,0.0,3
167041,226238,--,0.927,0.309,-0.208,0.0,0,0.0,3
167030,226225,--,0.927,0.309,-0.208,0.0,0,0.0,3
167007,226221,--,0.927,0.309,-0.208,0.0,0,0.0,3
166966,226178,--,0.927,0.309,-0.208,0.0,0,0.0,3
166916,226163,--,0.926,0.310,-0.209,0.0,0,0.0,3
166861,226124,--,0.927,0.309,-0.210,0.0,0,0.0,3
166816,226094,--,0.927,0.308,-0.211,0.0,0,0.0,3
166788,226063,--,0.925,0.308,-0.212,0.0,0,0.0,3
166743,226043,--,0.927,0.308,-0.211,0.0,0,0.0,3
166715,226027,--,0.928,0.309,-0.208,0.0,0,0.0,3
166693,226006,--,0.928,0.309,-0.208,0.0,0,0.0,3
166677,225995,--,0.925,0.310,-0.208,0.0,0,0.0,3
166656,225986,--,0.925,0.310,-0.208,0.0,0,0.0,3
166672,225984,--,0.925,0.310,-0.208,0.0,0,0.0,3
166671,225990,--,0.925,0.310,-0.208,0.0,0,0.0,3
166692,225996,--,0.924,0.310,-0.208,0.0,0,0.0,3
166698,226007,--,0.924,0.310,-0.208,0.0,0,0.0,3
166724,226004,--,0.924,0.310,-0.208,0.0,0,0.0,3
166716,225990,--,0.924,0.310,-0.208,0.0,0,0.0,3
166720,226006,--,0.926,0.309,-0.208,0.0,0,0.0,3
166722,225997,--,0.926,0.309,-0.208,0.0,0,0.0,3
166729,226000,--,0.926,0.309,-0.208,0.0,0,0.0,3
166722,225986,--,0.928,0.308,-0.208,0.0,0,0.0,3
166726,225973,--,0.928,0.308,-0.206,0.0,0,0.0,3
166722,225978,--,0.925,0.308,-0.206,0.0,0,0.0,3
166738,225984,--,0.923,0.309,-0.209,0.0,0,0.0,3
166754,225989,--,0.925,0.308,-0.209,0.0,0,0.0,3
166760,225992,--,0.926,0.308,-0.208,0.0,0,0.0,3
166769,225976,--,0.926,0.308,-0.208,0.0,0,0.0,3
166784,225990,--,0.926,0.308,-0.208,0.0,0,0.0,3
166784,225984,--,0.925,0.308,-0.209,0.0,0,0.0,3
166800,225988,--,0.925,0.308,-0.209,0.0,0,0.0,3
166809,225984,--,0.925,0.308,-0.209,0.0,0,0.0,3
166821,225997,--,0.925,0.308,-0.209,0.0,0,0.0,3
166809,225997,--,0.925,0.308,-0.210,0.0,0,0.0,3
166812,225997,--,0.925,0.308,-0.210,0.0,0,0.0,3
166818,225989,--,0.925,0.308,-0.210,0.0,0,0.0,3
166801,225976,--,0.925,0.308,-0.210,0.0,0,0.0,3
166809,225987,--,0.926,0.308,-0.209,0.0,0,0.0,3
166825,226001,--,0.928,0.309,-0.207,0.0,0,0.0,3
166826,225983,--,0.928,0.309,-0.208,0.0,0,0.0,3
166833,226001,--,0.926,0.309,-0.210,0.0,0,0.0,3
166845,226011,--,0.927,0.309,-0.209,0.0,0,0.0,3
166846,225991,--,0.928,0.308,-0.208,0.0,0,0.0,3
166854,226009,--,0.925,0.309,-0.208,0.0,0,0.0,3
166867,226015,--,0.925,0.309,-0.208,0.0,0,0.0,3
166871,226015,--,0.925,0.309,-0.208,0.0,0,0.0,3
166871,226011,--,0.925,0.309,-0.208,0.0,0,0.0,3
166874,226003,--,0.923,0.310,-0.208,0.0,0,0.0,3
166865,225990,--,0.923,0.310,-0.208,0.0,0,0.0,3
166853,225972,--,0.923,0.310,-0.208,0.0,0,0.0,3
166847,225963,--,0.923,0.310,-0.208,0.0,0,0.0,3
166842,225955,--,0.926,0.310,-0.207,0.0,0,0.0,3
166863,225964,--,0.926,0.310,-0.207,0.0,0,0.0,3
166883,225975,--,0.926,0.310,-0.207,0.0,0,0.0,3
166901,225985,--,0.926,0.310,-0.207,0.0,0,0.0,3
166920,225992,--,0.929,0.309,-0.205,0.0,0,0.0,3
166940,225991,--,0.927,0.308,-0.206,0.0,0,0.0,3
166937,225986,--,0.924,0.308,-0.205,0.0,0,0.0,3
166932,225986,--,0.924,0.308,-0.205,0.0,0,0.0,3
166939,225978,--,0.927,0.308,-0.205,0.0,0,0.0,3
166938,225968,--,0.927,0.308,-0.204,0.0,0,0.0,3
166919,225971,--,0.927,0.308,-0.204,0.0,0,0.0,3
166928,225961,--,0.926,0.308,-0.204,0.0,0,0.0,3
166927,225961,--,0.926,0.308,-0.204,0.0,0,0.0,3
166930,225957,--,0.926,0.308,-0.204,0.0,0,0.0,3
166953,225973,--,0.926,0.308,-0.204,0.0,0,0.0,3
166978,225974,--,0.926,0.308,-0.205,0.0,0,0.0,3
166993,225997,--,0.926,0.308,-0.205,0.0,0,0.0,3
167013,225994,--,0.929,0.307,-0.203,0.0,0,0.0,3
167023,226001,--,0.929,0.307,-0.203,0.0,0,0.0,3
167023,225993,--,0.929,0.307,-0.203,0.0,0,0.0,3
167016,225989,--,0.929,0.307,-0.203,0.0,0,0.0,3
167009,225982,--,0.931,0.307,-0.202,0.0,0,0.0,3
167020,225972,--,0.929,0.308,-0.204,0.0,0,0.0,3
167018,225975,--,0.927,0.307,-0.205,0.0,0,0.0,3
167018,225970,--,0.925,0.307,-0.206,0.0,0,0.0,3
167029,225973,--,0.926,0.307,-0.206,0.0,0,0.0,3
167031,225960,--,0.928,0.307,-0.204,0.0,0,0.0,3
167036,225976,--,0.928,0.307,-0.204,0.0,0,0.0,3
167033,225969,--,0.928,0.307,-0.204,0.0,0,0.0,3
167018,225971,--,0.927,0.307,-0.204,0.0,0,0.0,3
166987,225945,--,0.927,0.307,-0.204,0.0,0,0.0,3
166954,225912,--,0.927,0.307,-0.204,0.0,0,0.0,3
166897,225900,--,0.927,0.307,-0.204,0.0,0,0.0,3
166851,225854,--,0.925,0.307,-0.205,0.0,0,0.0,3
166797,225824,--,0.925,0.307,-0.205,0.0,0,0.0,3
166756,225796,--,0.925,0.307,-0.205,0.0,0,0.0,3
166720,225779,--,0.925,0.307,-0.205,0.0,0,0.0,3
166700,225762,--,0.925,0.307,-0.205,0.0,0,0.0,3
166669,225743,--,0.927,0.306,-0.206,0.0,0,0.0,3
166668,225740,--,0.929,0.306,-0.205,0.0,0,0.0,3
166670,225738,--,0.929,0.306,-0.207,0.0,0,0.0,3
166670,225744,--,0.927,0.307,-0.209,0.0,0,0.0,3
166668,225732,--,0.926,0.307,-0.208,0.0,0,0.0,3
166677,225737,--,0.927,0.307,-0.205,0.0,0,0.0,3
166679,225732,--,0.928,0.307,-0.203,0.0,0,0.0,3
166685,225729,--,0.928,0.307,-0.203,0.0,0,0.0,3
166701,225732,--,0.928,0.307,-0.203,0.0,0,0.0,3
166713,225742,--,0.928,0.307,-0.203,0.0,0,0.0,3
166714,225749,--,0.927,0.308,-0.204,0.0,0,0.0,3
166728,225752,--,0.927,0.308,-0.204,0.0,0,0.0,3
166723,225760,--,0.927,0.308,-0.204,0.0,0,0.0,3
166728,225759,--,0.927,0.308,-0.204,0.0,0,0.0,3
166744,225757,--,0.925,0.308,-0.207,0.0,0,0.0,3
166767,225764,--,0.925,0.308,-0.207,0.0,0,0.0,3
166781,225760,--,0.925,0.308,-0.207,0.0,0,0.0,3
166806,225785,--,0.925,0.307,-0.208,0.0,0,0.0,3
166817,225789,--,0.924,0.307,-0.207,0.0,0,0.0,3
166835,225793,--,0.926,0.307,-0.207,0.0,0,0.0,3
166848,225793,--,0.928,0.307,-0.206,0.0,0,0.0,3
166854,225805,--,0.930,0.306,-0.204,0.0,0,0.0,3
166848,225792,--,0.931,0.306,-0.203,0.0,0,0.0,3
166848,225791,--,0.931,0.306,-0.203,0.0,0,0.0,3
166836,225773,--,0.924,0.307,-0.207,0.0,0,0.0,3
166839,225773,--,0.924,0.307,-0.207,0.0,0,0.0,3
166831,225753,--,0.924,0.307,-0.207,0.0,0,0.0,3
166821,225756,--,0.921,0.307,-0.209,0.0,0,0.0,3
166822,225749,--,0.921,0.307,-0.209,0.0,0,0.0,3
166829,225747,--,0.921,0.307,-0.209,0.0,0,0.0,3
166828,225750,--,0.926,0.306,-0.208,0.0,0,0.0,3
166841,225747,--,0.926,0.306,-0.208,0.0,0,0.0,3
166859,225763,--,0.926,0.306,-0.208,0.0,0,0.0,3
166865,225757,--,0.926,0.306,-0.208,0.0,0,0.0,3
166869,225765,--,0.928,0.306,-0.204,0.0,0,0.0,3
166879,225761,--,0.930,0.307,-0.203,0.0,0,0.0,3
166882,225754,--,0.928,0.307,-0.203,0.0,0,0.0,3
166892,225750,--,0.926,0.307,-0.204,0.0,0,0.0,3
166894,225758,--,0.925,0.307,-0.206,0.0,0,0.0,3
166900,225745,--,0.927,0.307,-0.206,0.0,0,0.0,3
166908,225756,--,0.927,0.307,-0.206,0.0,0,0.0,3
166910,225740,--,0.927,0.307,-0.206,0.0,0,0.0,3
166923,225731,--,0.930,0.306,-0.204,0.0,0,0.0,3
166920,225727,--,0.930,0.306,-0.204,0.0,0,0.0,3
166928,225733,--,0.930,0.306,-0.204,0.0,0,0.0,3
166913,225734,--,0.929,0.305,-0.204,0.0,0,0.0,3
166909,225729,--,0.929,0.305,-0.204,0.0,0,0.0,3
166910,225728,--,0.929,0.305,-0.204,0.0,0,0.0,3
166903,225717,--,0.929,0.305,-0.204,0.0,0,0.0,3
166898,225714,--,0.927,0.306,-0.206,0.0,0,0.0,3
166903,225711,--,0.927,0.306,-0.206,0.0,0,0.0,3
166901,225694,--,0.927,0.306,-0.207,0.0,0,0.0,3
166915,225680,--,0.927,0.307,-0.206,0.0,0,0.0,3
166914,225689,--,0.927,0.307,-0.208,0.0,0,0.0,3
166917,225695,--,0.927,0.306,-0.208,0.0,0,0.0,3
166930,225695,--,0.927,0.306,-0.206,0.0,0,0.0,3
166936,225697,--,0.927,0.306,-0.206,0.0,0,0.0,3
166939,225703,--,0.928,0.307,-0.204,0.0,0,0.0,3
166948,225706,--,0.928,0.307,-0.204,0.0,0,0.0,3
166954,225697,--,0.928,0.307,-0.204,0.0,0,0.0,3
166960,225691,--,0.928,0.307,-0.204,0.0,0,0.0,3
166966,225694,--,0.928,0.307,-0.204,0.0,0,0.0,3
166959,225691,--,0.928,0.307,-0.204,0.0,0,0.0,3
166967,225693,--,0.928,0.307,-0.204,0.0,0,0.0,3
166973,225697,--,0.927,0.306,-0.205,0.0,0,0.0,3
166974,225688,--,0.927,0.306,-0.205,0.0,0,0.0,3
166979,225679,--,0.927,0.306,-0.205,0.0,0,0.0,3
166991,225683,--,0.927,0.305,-0.208,0.0,0,0.0,3
166987,225682,--,0.928,0.304,-0.208,0.0,0,0.0,3
166999,225674,--,0.928,0.304,-0.206,0.0,0,0.0,3
167012,225687,--,0.928,0.305,-0.204,0.0,0,0.0,3
167024,225683,--,0.928,0.305,-0.203,0.0,0,0.0,3
167034,225688,--,0.928,0.305,-0.203,0.0,0,0.0,3
167036,225687,--,0.928,0.305,-0.203,0.0,0,0.0,3
167050,225699,--,0.928,0.305,-0.203,0.0,0,0.0,3
167059,225703,--,0.927,0.305,-0.205,0.0,0,0.0,3
167072,225691,--,0.927,0.305,-0.205,0.0,0,0.0,3
167070,225699,--,0.927,0.305,-0.205,0.0,0,0.0,3
167059,225681,--,0.927,0.305,-0.205,0.0,0,0.0,3
167041,225669,--,0.927,0.304,-0.205,0.0,0,0.0,3
167019,225651,--,0.927,0.304,-0.205,0.0,0,0.0,3
166991,225625,--,0.927,0.303,-0.204,0.0,0,0.0,3
166926,225585,--,0.927,0.303,-0.204,0.0,0,0.0,3
166883,225563,--,0.927,0.303,-0.204,0.0,0,0.0,3
166831,225530,--,0.926,0.304,-0.205,0.0,0,0.0,3
166788,225512,--,0.928,0.304,-0.203,0.0,0,0.0,3
166758,225486,--,0.931,0.304,-0.200,0.0,0,0.0,3
166731,225466,--,0.929,0.304,-0.201,0.0,0,0.0,3
166712,225445,--,0.925,0.305,-0.203,0.0,0,0.0,3
166697,225446,--,0.925,0.305,-0.203,0.0,0,0.0,3
166699,225419,--,0.925,0.305,-0.204,0.0,0,0.0,3
166702,225420,--,0.925,0.305,-0.204,0.0,0,0.0,3
166701,225421,--,0.925,0.305,-0.204,0.0,0,0.0,3
166696,225436,--,0.925,0.305,-0.204,0.0,0,0.0,3
166721,225423,--,0.928,0.304,-0.202,0.0,0,0.0,3
166727,225423,--,0.928,0.304,-0.202,0.0,0,0.0,3
166729,225429,--,0.928,0.304,-0.202,0.0,0,0.0,3
166740,225428,--,0.927,0.304,-0.201,0.0,0,0.0,3
166745,225431,--,0.927,0.304,-0.201,0.0,0,0.0,3
166735,225423,--,0.927,0.304,-0.201,0.0,0,0.0,3
166757,225436,--,0.927,0.304,-0.204,0.0,0,0.0,3
166761,225440,--,0.927,0.304,-0.204,0.0,0,0.0,3
166771,225436,--,0.928,0.304,-0.206,0.0,0,0.0,3
166786,225432,--,0.926,0.304,-0.207,0.0,0,0.0,3
166777,225433,--,0.927,0.304,-0.207,0.0,0,0.0,3
166784,225435,--,0.931,0.304,-0.203,0.0,0,0.0,3
166791,225429,--,0.933,0.304,-0.203,0.0,0,0.0,3
166804,225441,--,0.933,0.304,-0.203,0.0,0,0.0,3
166814,225452,--,0.933,0.304,-0.203,0.0,0,0.0,3
166830,225460,--,0.931,0.304,-0.205,0.0,0,0.0,3
166825,225464,--,0.931,0.304,-0.205,0.0,0,0.0,3
166822,225452,--,0.931,0.304,-0.205,0.0,0,0.0,3
166815,225436,--,0.927,0.304,-0.208,0.0,0,0.0,3
166816,225433,--,0.927,0.304,-0.208,0.0,0,0.0,3
166796,225421,--,0.927,0.304,-0.208,0.0,0,0.0,3
166796,225415,--,0.926,0.304,-0.209,0.0,0,0.0,3
166791,225399,--,0.926,0.304,-0.209,0.0,0,0.0,3
166802,225405,--,0.926,0.304,-0.209,0.0,0,0.0,3
166819,225427,--,0.926,0.304,-0.209,0.0,0,0.0,3
166840,225434,--,0.927,0.304,-0.207,0.0,0,0.0,3
166850,225429,--,0.928,0.304,-0.207,0.0,0,0.0,3
166854,225438,--,0.929,0.304,-0.208,0.0,0,0.0,3
166862,225433,--,0.928,0.304,-0.208,0.0,0,0.0,3
166867,225443,--,0.928,0.305,-0.208,0.0,0,0.0,3
166873,225429,--,0.929,0.305,-0.207,0.0,0,0.0,3
166879,225431,--,0.929,0.305,-0.207,0.0,0,0.0,3
166886,225444,--,0.929,0.305,-0.207,0.0,0,0.0,3
166896,225436,--,0.927,0.305,-0.207,0.0,0,0.0,3
166914,225444,--,0.927,0.305,-0.207,0.0,0,0.0,3
166922,225450,--,0.927,0.305,-0.207,0.0,0,0.0,3
166935,225443,--,0.927,0.305,-0.207,0.0,0,0.0,3
166942,225455,--,0.927,0.305,-0.205,0.0,0,0.0,3
166948,225458,--,0.927,0.305,-0.205,0.0,0,0.0,3
166963,225456,--,0.927,0.305,-0.205,0.0,0,0.0,3
166982,225464,--,0.927,0.305,-0.203,0.0,0,0.0,3
166987,225454,--,0.927,0.305,-0.203,0.0,0,0.0,3
166983,225463,--,0.927,0.304,-0.204,0.0,0,0.0,3
166983,225462,--,0.928,0.304,-0.206,0.0,0,0.0,3
166986,225451,--,0.929,0.304,-0.206,0.0,0,0.0,3
166993,225452,--,0.930,0.304,-0.204,0.0,0,0.0,3
166997,225446,--,0.929,0.305,-0.202,0.0,0,0.0,3
167020,225460,--,0.929,0.305,-0.202,0.0,0,0.0,3
167032,225464,--,0.930,0.306,-0.202,0.0,0,0.0,3
167029,225468,--,0.930,0.306,-0.202,0.0,0,0.0,3
167028,225460,--,0.930,0.306,-0.202,0.0,0,0.0,3
167034,225467,--,0.930,0.306,-0.202,0.0,0,0.0,3
167033,225453,--,0.930,0.305,-0.203,0.0,0,0.0,3
167030,225457,--,0.930,0.305,-0.203,0.0,0,0.0,3
167027,225447,--,0.930,0.305,-0.203,0.0,0,0.0,3
167026,225433,--,0.930,0.305,-0.205,0.0,0,0.0,3
167020,225445,--,0.930,0.305,-0.205,0.0,0,0.0,3
167020,225431,--,0.930,0.305,-0.205,0.0,0,0.0,3
167019,225420,--,0.927,0.304,-0.206,0.0,0,0.0,3
167029,225422,--,0.926,0.304,-0.207,0.0,0,0.0,3
167022,225424,--,0.927,0.304,-0.206,0.0,0,0.0,3
167039,225426,--,0.930,0.304,-0.205,0.0,0,0.0,3
167048,225431,--,0.930,0.304,-0.205,0.0,0,0.0,3
167056,225440,--,0.928,0.304,-0.205,0.0,0,0.0,3
167069,225440,--,0.928,0.304,-0.205,0.0,0,0.0,3
167064,225443,--,0.928,0.304,-0.205,0.0,0,0.0,3
167067,225444,--,0.928,0.304,-0.205,0.0,0,0.0,3
167074,225431,--,0.926,0.304,-0.206,0.0,0,0.0,3
167083,225446,--,0.926,0.304,-0.206,0.0,0,0.0,3
167096,225447,--,0.926,0.304,-0.206,0.0,0,0.0,3
167117,225462,--,0.927,0.304,-0.206,0.0,0,0.0,3
167135,225472,--,0.927,0.304,-0.206,0.0,0,0.0,3
167161,225475,--,0.927,0.304,-0.206,0.0,0,0.0,3
167174,225483,--,0.929,0.304,-0.204,0.0,0,0.0,3
167166,225474,--,0.929,0.304,-0.204,0.0,0,0.0,3
167175,225473,--,0.929,0.304,-0.204,0.0,0,0.0,3
167164,225485,--,0.930,0.305,-0.203,0.0,0,0.0,3
167155,225469,--,0.929,0.305,-0.203,0.0,0,0.0,3
167108,225439,--,0.927,0.305,-0.202,0.0,0,0.0,3
167061,225418,--,0.926,0.304,-0.204,0.0,0,0.0,3
167023,225383,--,0.926,0.304,-0.206,0.0,0,0.0,3
166975,225358,--,0.926,0.304,-0.206,0.0,0,0.0,3
166929,225334,--,0.928,0.305,-0.207,0.0,0,0.0,3
166889,225314,--,0.928,0.305,-0.207,0.0,0,0.0,3
166855,225282,--,0.928,0.305,-0.207,0.0,0,0.0,3
166823,225261,--,0.929,0.304,-0.205,0.0,0,0.0,3
166799,225260,--,0.929,0.304,-0.205,0.0,0,0.0,3
166774,225247,--,0.930,0.304,-0.203,0.0,0,0.0,3
166773,225230,--,0.930,0.304,-0.203,0.0,0,0.0,3
166786,225249,--,0.930,0.304,-0.203,0.0,0,0.0,3
166803,225248,--,0.930,0.304,-0.203,0.0,0,0.0,3
166803,225256,--,0.928,0.304,-0.202,0.0,0,0.0,3
166816,225247,--,0.928,0.304,-0.202,0.0,0,0.0,3
166817,225252,--,0.928,0.305,-0.203,0.0,0,0.0,3
166816,225238,--,0.929,0.304,-0.204,0.0,0,0.0,3
166813,225240,--,0.930,0.303,-0.206,0.0,0,0.0,3
166810,225238,--,0.929,0.304,-0.205,0.0,0,0.0,3
166797,225230,--,0.927,0.304,-0.205,0.0,0,0.0,3
166795,225218,--,0.927,0.304,-0.205,0.0,0,0.0,3
166782,225224,--,0.927,0.304,-0.205,0.0,0,0.0,3
166768,225194,--,0.927,0.305,-0.205,0.0,0,0.0,3
166762,225203,--,0.927,0.305,-0.205,0.0,0,0.0,3
166769,225195,--,0.927,0.305,-0.205,0.0,0,0.0,3
166769,225200,--,0.927,0.305,-0.205,0.0,0,0.0,3
166796,225208,--,0.927,0.305,-0.205,0.0,0,0.0,3
166814,225223,--,0.927,0.305,-0.205,0.0,0,0.0,3
166818,225229,--,0.927,0.305,-0.205,0.0,0,0.0,3
166830,225242,--,0.928,0.305,-0.204,0.0,0,0.0,3
166837,225231,--,0.928,0.305,-0.204,0.0,0,0.0,3
166836,225226,--,0.928,0.305,-0.204,0.0,0,0.0,3
166827,225227,--,0.927,0.305,-0.206,0.0,0,0.0,3
166825,225214,--,0.926,0.305,-0.208,0.0,0,0.0,3
166813,225202,--,0.927,0.304,-0.208,0.0,0,0.0,3
166811,225204,--,0.929,0.304,-0.206,0.0,0,0.0,3
166799,225192,--,0.929,0.304,-0.204,0.0,0,0.0,3
166816,225194,--,0.927,0.305,-0.204,0.0,0,0.0,3
166828,225212,--,0.927,0.305,-0.204,0.0,0,0.0,3
166834,225204,--,0.927,0.305,-0.204,0.0,0,0.0,3
166842,225202,--,0.923,0.305,-0.205,0.0,0,0.0,3
166851,225212,--,0.923,0.305,-0.205,0.0,0,0.0,3
166852,225218,--,0.923,0.305,-0.205,0.0,0,0.0,3
166851,225208,--,0.923,0.305,-0.205,0.0,0,0.0,3
166863,225205,--,0.923,0.305,-0.207,0.0,0,0.0,3
166876,225206,--,0.923,0.305,-0.207,0.0,0,0.0,3
166874,225200,--,0.923,0.305,-0.207,0.0,0,0.0,3
166906,225218,--,0.927,0.305,-0.206,0.0,0,0.0,3
166891,225222,--,0.927,0.305,-0.206,0.0,0,0.0,3
166906,225218,--,0.929,0.304,-0.205,0.0,0,0.0,3
166913,225229,--,0.928,0.304,-0.205,0.0,0,0.0,3
166938,225239,--,0.928,0.305,-0.204,0.0,0,0.0,3
166945,225227,--,0.930,0.305,-0.202,0.0,0,0.0,3
166939,225227,--,0.929,0.306,-0.202,0.0,0,0.0,3
166932,225226,--,0.929,0.306,-0.202,0.0,0,0.0,3
166925,225214,--,0.927,0.306,-0.204,0.0,0,0.0,3
166918,225206,--,0.927,0.306,-0.204,0.0,0,0.0,3
166918,225204,--,0.927,0.306,-0.204,0.0,0,0.0,3
166927,225188,--,0.927,0.306,-0.204,0.0,0,0.0,3
166938,225198,--,0.927,0.305,-0.205,0.0,0,0.0,3
166954,225205,--,0.927,0.305,-0.205,0.0,0,0.0,3
166956,225205,--,0.927,0.305,-0.205,0.0,0,0.0,3
166961,225206,--,0.929,0.304,-0.204,0.0,0,0.0,3
166962,225186,--,0.929,0.304,-0.204,0.0,0,0.0,3
166957,225202,--,0.929,0.304,-0.204,0.0,0,0.0,3
166962,225202,--,0.929,0.304,-0.203,0.0,0,0.0,3
166969,225204,--,0.928,0.305,-0.202,0.0,0,0.0,3
166966,225204,--,0.926,0.305,-0.203,0.0,0,0.0,3
166978,225202,--,0.926,0.305,-0.204,0.0,0,0.0,3
166981,225208,--,0.927,0.304,-0.206,0.0,0,0.0,3
166994,225221,--,0.927,0.304,-0.205,0.0,0,0.0,3
166991,225218,--,0.927,0.304,-0.205,0.0,0,0.0,3
166995,225201,--,0.927,0.304,-0.205,0.0,0,0.0,3
167010,225206,--,0.927,0.304,-0.205,0.0,0,0.0,3
167019,225220,--,0.928,0.305,-0.203,0.0,0,0.0,3
167034,225213,--,0.928,0.305,-0.203,0.0,0,0.0,3
167050,225234,--,0.928,0.305,-0.203,0.0,0,0.0,3
167063,225232,--,0.929,0.305,-0.202,0.0,0,0.0,3
167056,225239,--,0.929,0.305,-0.202,0.0,0,0.0,3
167056,225232,--,0.929,0.305,-0.202,0.0,0,0.0,3
167061,225223,--,0.929,0.304,-0.203,0.0,0,0.0,3
167070,225234,--,0.929,0.304,-0.203,0.0,0,0.0,3
167078,225228,--,0.929,0.304,-0.203,0.0,0,0.0,3
167102,225239,--,0.928,0.304,-0.205,0.0,0,0.0,3
167105,225235,--,0.928,0.304,-0.205,0.0,0,0.0,3
167120,225234,--,0.927,0.305,-0.206,0.0,0,0.0,3
167128,225236,--,0.927,0.305,-0.206,0.0,0,0.0,3
167135,225242,--,0.928,0.305,-0.205,0.0,0,0.0,3
167139,225238,--,0.928,0.305,-0.205,0.0,0,0.0,3
167149,225238,--,0.928,0.305,-0.205,0.0,0,0.0,3
167164,225254,--,0.928,0.305,-0.205,0.0,0,0.0,3
167182,225252,--,0.928,0.305,-0.205,0.0,0,0.0,3
167177,225248,--,0.928,0.304,-0.204,0.0,0,0.0,3
167181,225249,--,0.928,0.304,-0.204,0.0,0,0.0,3
167148,225243,--,0.928,0.304,-0.204,0.0,0,0.0,3
167103,225204,--,0.928,0.304,-0.204,0.0,0,0.0,3
167046,225170,--,0.928,0.304,-0.204,0.0,0,0.0,3
166989,225134,--,0.928,0.304,-0.204,0.0,0,0.0,3
166937,225098,--,0.928,0.304,-0.204,0.0,0,0.0,3
166887,225066,--,0.928,0.304,-0.205,0.0,0,0.0,3
166851,225039,--,0.930,0.304,-0.205,0.0,0,0.0,3
166812,225026,--,0.929,0.305,-0.206,0.0,0,0.0,3
166778,225008,--,0.927,0.306,-0.208,0.0,0,0.0,3
166776,225012,--,0.928,0.306,-0.206,0.0,0,0.0,3
166763,225006,--,0.930,0.306,-0.204,0.0,0,0.0,3
166769,225013,--,0.930,0.306,-0.204,0.0,0,0.0,3
166780,225010,--,0.930,0.306,-0.204,0.0,0,0.0,3
166789,225016,--,0.930,0.305,-0.204,0.0,0,0.0,3
166793,225024,--,0.930,0.305,-0.204,0.0,0,0.0,3
166807,225026,--,0.930,0.305,-0.204,0.0,0,0.0,3
166819,225016,--,0.929,0.305,-0.206,0.0,0,0.0,3
166818,225019,--,0.929,0.305,-0.206,0.0,0,0.0,3
166840,225024,--,0.929,0.305,-0.206,0.0,0,0.0,3
166823,225017,--,0.929,0.306,-0.206,0.0,0,0.0,3
166837,225018,--,0.929,0.306,-0.206,0.0,0,0.0,3
166836,225023,--,0.929,0.306,-0.206,0.0,0,0.0,3
166824,225014,--,0.928,0.306,-0.208,0.0,0,0.0,3
166832,225013,--,0.927,0.305,-0.209,0.0,0,0.0,3
166837,225016,--,0.927,0.305,-0.208,0.0,0,0.0,3
166855,225031,--,0.928,0.304,-0.206,0.0,0,0.0,3
166870,225023,--,0.928,0.304,-0.206,0.0,0,0.0,3
166885,225038,--,0.928,0.304,-0.206,0.0,0,0.0,3
166912,225057,--,0.927,0.304,-0.208,0.0,0,0.0,3
166917,225063,--,0.927,0.304,-0.208,0.0,0,0.0,3
166926,225075,--,0.927,0.304,-0.208,0.0,0,0.0,3
166925,225076,--,0.927,0.304,-0.208,0.0,0,0.0,3
166938,225074,--,0.928,0.304,-0.208,0.0,0,0.0,3
166942,225067,--,0.928,0.304,-0.208,0.0,0,0.0,3
166940,225060,--,0.928,0.304,-0.208,0.0,0,0.0,3
166935,225052,--,0.930,0.304,-0.206,0.0,0,0.0,3
166935,225062,--,0.930,0.304,-0.206,0.0,0,0.0,3
166930,225046,--,0.930,0.304,-0.206,0.0,0,0.0,3
166927,225035,--,0.930,0.304,-0.205,0.0,0,0.0,3
166907,225032,--,0.930,0.304,-0.205,0.0,0,0.0,3
166908,225029,--,0.928,0.305,-0.206,0.0,0,0.0,3
166924,225037,--,0.927,0.304,-0.207,0.0,0,0.0,3
166930,225031,--,0.929,0.304,-0.208,0.0,0,0.0,3
166926,225027,--,0.926,0.304,-0.209,0.0,0,0.0,3
166932,225027,--,0.922,0.305,-0.211,0.0,0,0.0,3
166945,225022,--,0.922,0.305,-0.211,0.0,0,0.0,3
166948,225035,--,0.922,0.305,-0.211,0.0,0,0.0,3
166958,225019,--,0.924,0.305,-0.208,0.0,0,0.0,3
166955,225035,--,0.924,0.305,-0.208,0.0,0,0.0,3
166953,225032,--,0.924,0.305,-0.208,0.0,0,0.0,3
166961,225028,--,0.929,0.305,-0.203,0.0,0,0.0,3
166964,225032,--,0.929,0.305,-0.203,0.0,0,0.0,3
166983,225035,--,0.929,0.305,-0.203,0.0,0,0.0,3
166990,225035,--,0.930,0.305,-0.203,0.0,0,0.0,3
166990,225041,--,0.930,0.305,-0.203,0.0,0,0.0,3
167004,225060,--,0.930,0.305,-0.203,0.0,0,0.0,3
167021,225059,--,0.930,0.305,-0.203,0.0,0,0.0,3
167030,225068,--,0.928,0.305,-0.206,0.0,0,0.0,3
167043,225065,--,0.928,0.305,-0.208,0.0,0,0.0,3
167030,225060,--,0.928,0.305,-0.208,0.0,0,0.0,3
167054,225057,--,0.928,0.305,-0.205,0.0,0,0.0,3
167048,225058,--,0.927,0.306,-0.204,0.0,0,0.0,3
167048,225037,--,0.927,0.307,-0.205,0.0,0,0.0,3
167045,225043,--,0.927,0.307,-0.205,0.0,0,0.0,3
167049,225051,--,0.927,0.307,-0.205,0.0,0,0.0,3
167055,225048,--,0.929,0.306,-0.206,0.0,0,0.0,3
167053,225040,--,0.929,0.306,-0.206,0.0,0,0.0,3
167068,225054,--,0.929,0.306,-0.206,0.0,0,0.0,3
167067,225047,--,0.931,0.305,-0.206,0.0,0,0.0,3
167080,225053,--,0.931,0.305,-0.206,0.0,0,0.0,3
167090,225064,--,0.931,0.305,-0.206,0.0,0,0.0,3
167104,225060,--,0.931,0.305,-0.206,0.0,0,0.0,3
167102,225058,--,0.929,0.305,-0.208,0.0,0,0.0,3
167087,225052,--,0.929,0.305,-0.208,0.0,0,0.0,3
167112,225064,--,0.926,0.305,-0.210,0.0,0,0.0,3
167113,225072,--,0.924,0.306,-0.211,0.0,0,0.0,3
167129,225073,--,0.923,0.306,-0.213,0.0,0,0.0,3
167154,225091,--,0.924,0.306,-0.213,0.0,0,0.0,3
167175,225098,--,0.928,0.305,-0.211,0.0,0,0.0,3
167195,225121,--,0.928,0.305,-0.211,0.0,0,0.0,3
167204,225125,--,0.929,0.305,-0.209,0.0,0,0.0,3
167218,225130,--,0.929,0.305,-0.209,0.0,0,0.0,3
167251,225145,--,0.929,0.305,-0.209,0.0,0,0.0,3
167264,225164,--,0.930,0.304,-0.209,0.0,0,0.0,3
167277,225164,--,0.930,0.304,-0.209,0.0,0,0.0,3
167300,225178,--,0.930,0.304,-0.209,0.0,0,0.0,3
167304,225173,--,0.930,0.304,-0.209,0.0,0,0.0,3
167303,225170,--,0.931,0.303,-0.208,0.0,0,0.0,3
167312,225173,--,0.931,0.303,-0.208,0.0,0,0.0,3
167312,225162,--,0.931,0.303,-0.208,0.0,0,0.0,3
167307,225145,--,0.927,0.304,-0.208,0.0,0,0.0,3
167288,225129,--,0.924,0.305,-0.209,0.0,0,0.0,3
167289,225137,--,0.926,0.305,-0.208,0.0,0,0.0,3
167292,225126,--,0.928,0.304,-0.207,0.0,0,0.0,3
167289,225125,--,0.929,0.304,-0.207,0.0,0,0.0,3
167265,225109,--,0.929,0.304,-0.207,0.0,0,0.0,3
167216,225080,--,0.929,0.304,-0.207,0.0,0,0.0,3
167152,225045,--,0.929,0.304,-0.207,0.0,0,0.0,3
167085,225010,--,0.929,0.304,-0.207,0.0,0,0.0,3
167034,224975,--,0.926,0.304,-0.209,0.0,0,0.0,3
166947,224926,--,0.926,0.304,-0.209,0.0,0,0.0,3
166913,224893,--,0.926,0.304,-0.209,0.0,0,0.0,3
166870,224870,--,0.924,0.303,-0.211,0.0,0,0.0,3
166855,224868,--,0.924,0.303,-0.211,0.0,0,0.0,3
166845,224852,--,0.924,0.303,-0.211,0.0,0,0.0,3
166835,224858,--,0.927,0.304,-0.209,0.0,0,0.0,3
166844,224847,--,0.927,0.304,-0.209,0.0,0,0.0,3
166849,224853,--,0.927,0.304,-0.209,0.0,0,0.0,3
166852,224853,--,0.928,0.304,-0.206,0.0,0,0.0,3
166856,224858,--,0.928,0.305,-0.205,0.0,0,0.0,3
166858,224849,--,0.927,0.305,-0.206,0.0,0,0.0,3
166862,224867,--,0.927,0.304,-0.208,0.0,0,0.0,3
166885,224868,--,0.926,0.304,-0.208,0.0,0,0.0,3
166900,224881,--,0.925,0.305,-0.209,0.0,0,0.0,3
166902,224879,--,0.925,0.305,-0.209,0.0,0,0.0,3
166900,224869,--,0.925,0.305,-0.209,0.0,0,0.0,3
166914,224874,--,0.926,0.305,-0.207,0.0,0,0.0,3
166909,224880,--,0.926,0.305,-0.207,0.0,0,0.0,3
166919,224881,--,0.926,0.305,-0.207,0.0,0,0.0,3
166933,224889,--,0.929,0.304,-0.204,0.0,0,0.0,3
166935,224882,--,0.929,0.304,-0.204,0.0,0,0.0,3
166962,224888,--,0.929,0.304,-0.204,0.0,0,0.0,3
166961,224896,--,0.930,0.303,-0.205,0.0,0,0.0,3
166978,224896,--,0.930,0.303,-0.205,0.0,0,0.0,3
166981,224897,--,0.930,0.303,-0.205,0.0,0,0.0,3
166980,224900,--,0.929,0.302,-0.206,0.0,0,0.0,3
166985,224903,--,0.929,0.303,-0.207,0.0,0,0.0,3
166980,224894,--,0.927,0.303,-0.208,0.0,0,0.0,3
166974,224877,--,0.928,0.303,-0.210,0.0,0,0.0,3
166985,224879,--,0.929,0.303,-0.208,0.0,0,0.0,3
166983,224889,--,0.929,0.303,-0.208,0.0,0,0.0,3
166988,224888,--,0.929,0.303,-0.208,0.0,0,0.0,3
166985,224878,--,0.929,0.304,-0.207,0.0,0,0.0,3
166989,224878,--,0.929,0.304,-0.207,0.0,0,0.0,3
166974,224879,--,0.929,0.304,-0.207,0.0,0,0.0,3
166968,224871,--,0.929,0.305,-0.206,0.0,0,0.0,3
166971,224861,--,0.929,0.305,-0.206,0.0,0,0.0,3
166969,224871,--,0.929,0.305,-0.206,0.0,0,0.0,3
166988,224865,--,0.929,0.305,-0.206,0.0,0,0.0,3
167007,224886,--,0.926,0.304,-0.208,0.0,0,0.0,3
167021,224889,--,0.926,0.304,-0.208,0.0,0,0.0,3
167033,224901,--,0.926,0.304,-0.208,0.0,0,0.0,3
167047,224914,--,0.925,0.304,-0.210,0.0,0,0.0,3
167042,224902,--,0.927,0.304,-0.210,0.0,0,0.0,3
167052,224900,--,0.928,0.303,-0.209,0.0,0,0.0,3
167056,224900,--,0.929,0.303,-0.208,0.0,0,0.0,3
167050,224896,--,0.929,0.304,-0.208,0.0,0,0.0,3
167057,224901,--,0.929,0.304,-0.206,0.0,0,0.0,3
167076,224915,--,0.929,0.304,-0.206,0.0,0,0.0,3
167093,224926,--,0.929,0.304,-0.206,0.0,0,0.0,3
167118,224918,--,0.930,0.304,-0.205,0.0,0,0.0,3
167115,224928,--,0.930,0.304,-0.205,0.0,0,0.0,3
167125,224918,--,0.930,0.304,-0.205,0.0,0,0.0,3
167127,224922,--,0.930,0.304,-0.205,0.0,0,0.0,3
167132,224926,--,0.927,0.305,-0.208,0.0,0,0.0,3
167138,224927,--,0.927,0.305,-0.208,0.0,0,0.0,3
167142,224927,--,0.927,0.305,-0.208,0.0,0,0.0,3
167147,224923,--,0.926,0.305,-0.210,0.0,0,0.0,3
167135,224923,--,0.926,0.305,-0.210,0.0,0,0.0,3
167139,224917,--,0.928,0.304,-0.211,0.0,0,0.0,3
167152,224920,--,0.928,0.303,-0.210,0.0,0,0.0,3
167153,224916,--,0.927,0.304,-0.209,0.0,0,0.0,3
167175,224923,--,0.927,0.305,-0.209,0.0,0,0.0,3
167170,224928,--,0.927,0.304,-0.208,0.0,0,0.0,3
167176,224930,--,0.927,0.304,-0.208,0.0,0,0.0,3
167174,224937,--,0.927,0.304,-0.210,0.0,0,0.0,3
167171,224914,--,0.927,0.304,-0.210,0.0,0,0.0,3
167177,224930,--,0.927,0.304,-0.210,0.0,0,0.0,3
167171,224923,--,0.927,0.304,-0.210,0.0,0,0.0,3
167179,224909,--,0.928,0.304,-0.211,0.0,0,0.0,3
167184,224920,--,0.928,0.304,-0.211,0.0,0,0.0,3
167191,224921,--,0.928,0.304,-0.211,0.0,0,0.0,3
167205,224929,--,0.928,0.304,-0.208,0.0,0,0.0,3
167211,224935,--,0.928,0.304,-0.208,0.0,0,0.0,3
167217,224950,--,0.928,0.304,-0.208,0.0,0,0.0,3
167241,224959,--,0.929,0.304,-0.207,0.0,0,0.0,3
167246,224945,--,0.929,0.303,-0.208,0.0,0,0.0,3
167260,224954,--,0.929,0.303,-0.209,0.0,0,0.0,3
167276,224962,--,0.929,0.304,-0.210,0.0,0,0.0,3
167293,224974,--,0.929,0.304,-0.208,0.0,0,0.0,3
167303,224973,--,0.927,0.304,-0.208,0.0,0,0.0,3
167302,224982,--,0.927,0.304,-0.208,0.0,0,0.0,3
167304,224977,--,0.927,0.304,-0.208,0.0,0,0.0,3
167308,224989,--,0.927,0.304,-0.208,0.0,0,0.0,3
167317,224981,--,0.927,0.305,-0.208,0.0,0,0.0,3
167320,224975,--,0.927,0.305,-0.208,0.0,0,0.0,3
167340,224994,--,0.927,0.305,-0.208,0.0,0,0.0,3
167346,224993,--,0.929,0.304,-0.208,0.0,0,0.0,3
167361,224994,--,0.929,0.304,-0.208,0.0,0,0.0,3
167358,225002,--,0.929,0.304,-0.208,0.0,0,0.0,3
167359,224989,--,0.928,0.303,-0.208,0.0,0,0.0,3
167338,224975,--,0.928,0.303,-0.208,0.0,0,0.0,3
167288,224952,--,0.928,0.303,-0.208,0.0,0,0.0,3
167228,224917,--,0.928,0.304,-0.207,0.0,0,0.0,3
167168,224891,--,0.928,0.304,-0.207,0.0,0,0.0,3
167104,224846,--,0.926,0.304,-0.209,0.0,0,0.0,3
167065,224811,--,0.926,0.305,-0.209,0.0,0,0.0,3
167015,224793,--,0.929,0.306,-0.208,0.0,0,0.0,3
166988,224765,--,0.929,0.306,-0.208,0.0,0,0.0,3
166968,224754,--,0.930,0.306,-0.206,0.0,0,0.0,3
166951,224744,--,0.930,0.306,-0.206,0.0,0,0.0,3
166949,224740,--,0.930,0.306,-0.206,0.0,0,0.0,3
166959,224752,--,0.928,0.306,-0.206,0.0,0,0.0,3
166954,224748,--,0.928,0.306,-0.206,0.0,0,0.0,3
166965,224754,--,0.928,0.306,-0.206,0.0,0,0.0,3
166971,224751,--,0.928,0.305,-0.206,0.0,0,0.0,3
166977,224762,--,0.928,0.305,-0.206,0.0,0,0.0,3
166988,224757,--,0.928,0.305,-0.206,0.0,0,0.0,3
166994,224754,--,0.928,0.305,-0.206,0.0,0,0.0,3
166996,224757,--,0.930,0.304,-0.206,0.0,0,0.0,3
166991,224759,--,0.929,0.304,-0.207,0.0,0,0.0,3
166997,224758,--,0.928,0.304,-0.207,0.0,0,0.0,3
167001,224756,--,0.930,0.304,-0.204,0.0,0,0.0,3
167007,224762,--,0.931,0.304,-0.204,0.0,0,0.0,3
167017,224767,--,0.927,0.305,-0.207,0.0,0,0.0,3
167024,224770,--,0.927,0.305,-0.207,0.0,0,0.0,3
167031,224764,--,0.924,0.306,-0.207,0.0,0,0.0,3
167044,224781,--,0.924,0.306,-0.207,0.0,0,0.0,3
167066,224777,--,0.924,0.306,-0.207,0.0,0,0.0,3
167072,224790,--,0.925,0.305,-0.206,0.0,0,0.0,3
167084,224790,--,0.925,0.305,-0.206,0.0,0,0.0,3
167087,224786,--,0.925,0.305,-0.206,0.0,0,0.0,3
167074,224793,--,0.925,0.305,-0.206,0.0,0,0.0,3
167069,224783,--,0.928,0.305,-0.206,0.0,0,0.0,3
167077,224782,--,0.928,0.305,-0.206,0.0,0,0.0,3
167081,224784,--,0.928,0.305,-0.206,0.0,0,0.0,3
167080,224783,--,0.928,0.304,-0.206,0.0,0,0.0,3
167083,224776,--,0.926,0.305,-0.208,0.0,0,0.0,3
167086,224790,--,0.927,0.304,-0.208,0.0,0,0.0,3
167084,224793,--,0.931,0.303,-0.204,0.0,0,0.0,3
167107,224783,--,0.932,0.303,-0.201,0.0,0,0.0,3
167091,224787,--,0.932,0.303,-0.201,0.0,0,0.0,3
167098,224786,--,0.929,0.304,-0.204,0.0,0,0.0,3
167121,224796,--,0.929,0.304,-0.204,0.0,0,0.0,3
167117,224804,--,0.929,0.304,-0.204,0.0,0,0.0,3
167134,224805,--,0.929,0.304,-0.206,0.0,0,0.0,3
167146,224813,--,0.929,0.304,-0.206,0.0,0,0.0,3
167157,224814,--,0.929,0.304,-0.206,0.0,0,0.0,3
167157,224815,--,0.929,0.304,-0.206,0.0,0,0.0,3
167167,224810,--,0.929,0.303,-0.206,0.0,0,0.0,3
167166,224819,--,0.929,0.303,-0.206,0.0,0,0.0,3
167171,224811,--,0.929,0.303,-0.206,0.0,0,0.0,3
167200,224836,--,0.930,0.303,-0.202,0.0,0,0.0,3
167217,224836,--,0.930,0.303,-0.202,0.0,0,0.0,3
167223,224846,--,0.929,0.303,-0.202,0.0,0,0.0,3
167250,224855,--,0.927,0.303,-0.205,0.0,0,0.0,3
167271,224860,--,0.925,0.303,-0.207,0.0,0,0.0,3
167272,224861,--,0.925,0.303,-0.207,0.0,0,0.0,3
167281,224865,--,0.930,0.303,-0.201,0.0,0,0.0,3
167276,224854,--,0.930,0.303,-0.201,0.0,0,0.0,3
167277,224840,--,0.930,0.303,-0.201,0.0,0,0.0,3
167267,224844,--,0.932,0.303,-0.196,0.0,0,0.0,3
167265,224847,--,0.932,0.303,-0.196,0.0,0,0.0,3
167259,224827,--,0.932,0.303,-0.196,0.0,0,0.0,3
167267,224831,--,0.931,0.303,-0.194,0.0,0,0.0,3
167291,224838,--,0.931,0.303,-0.194,0.0,0,0.0,3
167295,224839,--,0.931,0.303,-0.194,0.0,0,0.0,3
167317,224851,--,0.935,0.303,-0.192,0.0,0,0.0,3
167333,224848,--,0.935,0.303,-0.192,0.0,0,0.0,3
167343,224844,--,0.935,0.303,-0.192,0.0,0,0.0,3
167353,224827,--,0.935,0.303,-0.192,0.0,0,0.0,3
167340,224815,--,0.937,0.302,-0.193,0.0,0,0.0,3
167338,224805,--,0.935,0.302,-0.196,0.0,0,0.0,3
167318,224790,--,0.932,0.302,-0.197,0.0,0,0.0,3
167306,224776,--,0.929,0.302,-0.197,0.0,0,0.0,3
167304,224765,--,0.928,0.302,-0.198,0.0,0,0.0,3
167318,224770,--,0.929,0.302,-0.199,0.0,0,0.0,3
167330,224782,--,0.929,0.302,-0.199,0.0,0,0.0,3
167340,224799,--,0.929,0.302,-0.199,0.0,0,0.0,3
167358,224806,--,0.929,0.302,-0.199,0.0,0,0.0,3
167360,224801,--,0.929,0.302,-0.199,0.0,0,0.0,3
167362,224816,--,0.929,0.302,-0.199,0.0,0,0.0,3
167376,224806,--,0.931,0.302,-0.197,0.0,0,0.0,3
167387,224827,--,0.931,0.302,-0.197,0.0,0,0.0,3
167397,224830,--,0.931,0.302,-0.197,0.0,0,0.0,3
167405,224836,--,0.931,0.302,-0.197,0.0,0,0.0,3
167428,224848,--,0.933,0.302,-0.196,0.0,0,0.0,3
167436,224844,--,0.933,0.302,-0.196,0.0,0,0.0,3
167444,224856,--,0.931,0.303,-0.197,0.0,0,0.0,3
167464,224861,--,0.930,0.303,-0.198,0.0,0,0.0,3
167467,224861,--,0.930,0.302,-0.199,0.0,0,0.0,3
167474,224860,--,0.930,0.302,-0.200,0.0,0,0.0,3
167489,224867,--,0.930,0.302,-0.198,0.0,0,0.0,3
167495,224873,--,0.930,0.302,-0.198,0.0,0,0.0,3
167514,224862,--,0.930,0.303,-0.197,0.0,0,0.0,3
167506,224872,--,0.930,0.303,-0.197,0.0,0,0.0,3
167490,224863,--,0.930,0.303,-0.197,0.0,0,0.0,3
167443,224824,--,0.930,0.303,-0.199,0.0,0,0.0,3
167377,224784,--,0.930,0.303,-0.199,0.0,0,0.0,3
167297,224756,--,0.930,0.303,-0.199,0.0,0,0.0,3
167228,224714,--,0.930,0.303,-0.199,0.0,0,0.0,3
167175,224679,--,0.930,0.302,-0.200,0.0,0,0.0,3
167132,224662,--,0.930,0.302,-0.200,0.0,0,0.0,3
167093,224629,--,0.930,0.302,-0.200,0.0,0,0.0,3
167057,224613,--,0.930,0.302,-0.200,0.0,0,0.0,3
167057,224609,--,0.931,0.302,-0.200,0.0,0,0.0,3
167039,224608,--,0.932,0.303,-0.198,0.0,0,0.0,3
167047,224610,--,0.932,0.303,-0.197,0.0,0,0.0,3
167058,224603,--,0.931,0.303,-0.200,0.0,0,0.0,3
167072,224623,--,0.928,0.303,-0.204,0.0,0,0.0,3
167107,224636,--,0.928,0.303,-0.204,0.0,0,0.0,3
167133,224643,--,0.928,0.303,-0.204,0.0,0,0.0,3
167145,224660,--,0.928,0.303,-0.204,0.0,0,0.0,3
167170,224673,--,0.928,0.303,-0.203,0.0,0,0.0,3
167180,224677,--,0.928,0.303,-0.203,0.0,0,0.0,3
167192,224675,--,0.928,0.303,-0.203,0.0,0,0.0,3
167183,224670,--,0.929,0.303,-0.200,0.0,0,0.0,3
167185,224675,--,0.929,0.303,-0.200,0.0,0,0.0,3
167193,224675,--,0.929,0.303,-0.200,0.0,0,0.0,3
167199,224690,--,0.929,0.304,-0.201,0.0,0,0.0,3
167215,224680,--,0.929,0.304,-0.201,0.0,0,0.0,3
167216,224694,--,0.929,0.304,-0.201,0.0,0,0.0,2
167224,224694,--,0.928,0.305,-0.202,0.0,0,0.0,2
167239,224698,--,0.928,0.305,-0.203,0.0,0,0.0,2
167241,224703,--,0.928,0.304,-0.203,0.0,0,0.0,2
167250,224713,--,0.928,0.304,-0.203,0.0,0,0.0,2
167260,224712,--,0.930,0.304,-0.203,0.0,0,0.0,2
167267,224710,--,0.930,0.304,-0.203,0.0,0,0.0,2
167258,224708,--,0.931,0.304,-0.202,0.0,0,0.0,2
167247,224702,--,0.931,0.304,-0.202,0.0,0,0.0,2
167238,224693,--,0.931,0.304,-0.202,0.0,0,0.0,2
167232,224689,--,0.931,0.304,-0.202,0.0,0,0.0,2
167237,224682,--,0.931,0.304,-0.202,0.0,0,0.0,2
167228,224671,--,0.931,0.304,-0.202,0.0,0,0.0,2
167220,224666,--,0.931,0.304,-0.202,0.0,0,0.0,2
167215,224660,--,0.931,0.304,-0.202,0.0,0,0.0,2
167218,224658,--,0.931,0.304,-0.202,0.0,0,0.0,2
167215,224655,--,0.931,0.304,-0.200,0.0,0,0.0,2
167224,224661,--,0.931,0.304,-0.200,0.0,0,0.0,2
167228,224659,--,0.930,0.305,-0.199,0.0,0,0.0,2
167235,224665,--,0.930,0.305,-0.199,0.0,0,0.0,2
167245,224669,--,0.931,0.305,-0.199,0.0,0,0.0,2
167253,224685,--,0.932,0.304,-0.199,0.0,0,0.0,2
167274,224694,--,0.930,0.304,-0.200,0.0,0,0.0,2
167281,224692,--,0.930,0.304,-0.201,0.0,0,0.0,2
167302,224698,--,0.930,0.304,-0.201,0.0,0,0.0,2
167298,224694,--,0.930,0.304,-0.201,0.0,0,0.0,2
167319,224692,--,0.930,0.304,-0.199,0.0,0,0.0,2
167318,224691,--,0.930,0.304,-0.199,0.0,0,0.0,2
167320,224708,--,0.930,0.304,-0.199,0.0,0,0.0,2
167330,224700,--,0.930,0.304,-0.199,0.0,0,0.0,2
167341,224710,--,0.930,0.304,-0.199,0.0,0,0.0,2
167359,224715,--,0.930,0.304,-0.199,0.0,0,0.0,2
167358,224718,--,0.930,0.304,-0.199,0.0,0,0.0,2
167361,224726,--,0.930,0.304,-0.199,0.0,0,0.0,2
167376,224725,--,0.930,0.304,-0.200,0.0,0,0.0,2
167366,224717,--,0.930,0.304,-0.200,0.0,0,0.0,2
167370,224717,--,0.929,0.304,-0.200,0.0,0,0.0,2
167357,224696,--,0.929,0.305,-0.200,0.0,0,0.0,2
167359,224697,--,0.929,0.305,-0.200,0.0,0,0.0,2
167371,224704,--,0.930,0.304,-0.200,0.0,0,0.0,2
167370,224712,--,0.930,0.304,-0.200,0.0,0,0.0,2
167373,224699,--,0.928,0.304,-0.203,0.0,0,0.0,2
167383,224714,--,0.928,0.304,-0.203,0.0,0,0.0,2
167386,224710,--,0.928,0.304,-0.203,0.0,0,0.0,2
167382,224704,--,0.928,0.304,-0.203,0.0,0,0.0,2
167385,224698,--,0.927,0.304,-0.203,0.0,0,0.0,2
167381,224701,--,0.927,0.304,-0.203,0.0,0,0.0,2
167384,224697,--,0.927,0.304,-0.203,0.0,0,0.0,2
167391,224701,--,0.927,0.304,-0.203,0.0,0,0.0,2
167385,224702,--,0.926,0.303,-0.200,0.0,0,0.0,2
167405,224711,--,0.926,0.303,-0.200,0.0,0,0.0,2
167408,224718,--,0.926,0.303,-0.200,0.0,0,0.0,2
167422,224717,--,0.927,0.303,-0.200,0.0,0,0.0,2
167426,224719,--,0.931,0.302,-0.200,0.0,0,0.0,2
167433,224719,--,0.932,0.302,-0.200,0.0,0,0.0,2
167435,224718,--,0.931,0.302,-0.201,0.0,0,0.0,2
167436,224716,--,0.928,0.303,-0.203,0.0,0,0.0,2
167461,224735,--,0.927,0.303,-0.203,0.0,0,0.0,2
167479,224743,--,0.927,0.303,-0.203,0.0,0,0.0,2
167494,224756,--,0.927,0.303,-0.203,0.0,0,0.0,2
167519,224757,--,0.928,0.303,-0.202,0.0,0,0.0,2
167534,224763,--,0.928,0.303,-0.202,0.0,0,0.0,2
167529,224766,--,0.928,0.303,-0.202,0.0,0,0.0,2
167533,224758,--,0.928,0.303,-0.202,0.0,0,0.0,2
167522,224754,--,0.929,0.303,-0.200,0.0,0,0.0,2
167514,224745,--,0.929,0.303,-0.200,0.0,0,0.0,2
167485,224729,--,0.929,0.303,-0.200,0.0,0,0.0,2
167436,224703,--,0.929,0.303,-0.200,0.0,0,0.0,2
167370,224669,--,0.929,0.303,-0.201,0.0,0,0.0,2
167303,224623,--,0.929,0.303,-0.203,0.0,0,0.0,2
167233,224599,--,0.930,0.303,-0.204,0.0,0,0.0,2
167182,224576,--,0.929,0.303,-0.204,0.0,0,0.0,2
167154,224542,--,0.930,0.303,-0.202,0.0,0,0.0,2
167126,224521,--,0.930,0.303,-0.201,0.0,0,0.0,2
167106,224513,--,0.930,0.303,-0.201,0.0,0,0.0,2
167090,224516,--,0.930,0.303,-0.201,0.0,0,0.0,2
167080,224495,--,0.930,0.303,-0.201,0.0,0,0.0,2
167084,224507,--,0.930,0.303,-0.201,0.0,0,0.0,2
167102,224502,--,0.930,0.304,-0.202,0.0,0,0.0,2
167106,224505,--,0.930,0.304,-0.202,0.0,0,0.0,2
167115,224519,--,0.930,0.304,-0.202,0.0,0,0.0,2
167112,224504,--,0.930,0.304,-0.202,0.0,0,0.0,2
167131,224515,--,0.928,0.304,-0.202,0.0,0,0.0,2
167136,224519,--,0.928,0.304,-0.202,0.0,0,0.0,2
167142,224514,--,0.928,0.304,-0.202,0.0,0,0.0,2
167154,224523,--,0.928,0.304,-0.202,0.0,0,0.0,2
167158,224535,--,0.929,0.304,-0.203,0.0,0,0.0,2
167167,224538,--,0.929,0.304,-0.204,0.0,0,0.0,2
167171,224539,--,0.929,0.304,-0.205,0.0,0,0.0,2
167169,224526,--,0.927,0.303,-0.205,0.0,0,0.0,2
167173,224534,--,0.927,0.303,-0.203,0.0,0,0.0,2
167181,224532,--,0.930,0.303,-0.203,63.4,50,0.0,3
167191,224554,--,0.930,0.303,-0.203,63.4,50,0.0,3
167207,224549,--,0.930,0.303,-0.203,63.4,50,0.0,3
167208,224548,--,0.930,0.303,-0.203,63.4,50,0.0,3
167213,224553,--,0.930,0.303,-0.203,63.4,50,0.0,3
167202,224539,--,0.930,0.303,-0.203,63.4,50,0.0,3
167202,224541,--,0.930,0.303,-0.203,63.4,50,0.0,3
167201,224541,--,0.930,0.303,-0.203,63.4,50,0.0,3
167208,224541,--,0.930,0.303,-0.203,63.4,50,0.0,3
167218,224540,--,0.930,0.303,-0.203,63.4,50,0.0,3
167220,224541,--,0.929,0.303,-0.204,63.4,50,0.0,3
167206,224536,--,0.929,0.303,-0.204,63.4,50,0.0,3
167198,224527,--,0.927,0.303,-0.206,63.4,50,0.0,3
167194,224540,--,0.927,0.303,-0.206,63.4,50,0.0,3
167191,224528,--,0.927,0.303,-0.206,63.4,50,0.0,3
167189,224521,--,0.928,0.303,-0.204,63.4,50,0.0,3
167206,224531,--,0.928,0.303,-0.204,63.4,50,0.0,3
167217,224540,--,0.927,0.303,-0.206,63.4,50,0.0,3
167229,224552,--,0.927,0.303,-0.206,63.4,50,0.0,3
167238,224554,--,0.927,0.303,-0.206,63.4,50,0.0,3
167247,224563,--,0.927,0.303,-0.206,63.4,50,0.0,3
167250,224557,--,0.927,0.303,-0.206,63.4,50,0.0,3
167271,224566,--,0.927,0.303,-0.206,63.4,50,0.0,3
167280,224575,--,0.927,0.303,-0.206,63.4,50,0.0,3
167288,224582,--,0.927,0.303,-0.206,63.4,50,0.0,3
167287,224574,--,0.929,0.303,-0.205,63.4,50,0.0,3
167299,224584,--,0.929,0.303,-0.205,63.4,50,0.0,3
167312,224584,--,0.929,0.303,-0.205,63.4,50,0.0,3
167310,224584,--,0.929,0.303,-0.205,63.4,50,0.0,3
167321,224580,--,0.929,0.303,-0.206,63.4,50,0.0,3
167310,224568,--,0.929,0.303,-0.206,63.4,50,0.0,3
167325,224572,--,0.928,0.303,-0.205,63.4,50,0.0,3
167336,224583,--,0.928,0.303,-0.205,63.4,50,0.0,3
167347,224592,--,0.928,0.303,-0.205,63.4,50,0.0,3
167359,224592,--,0.928,0.304,-0.205,63.4,50,0.0,3
167353,224592,--,0.928,0.305,-0.205,63.4,50,0.0,3
167350,224588,--,0.928,0.305,-0.205,63.4,50,0.0,3
167358,224585,--,0.928,0.305,-0.205,63.4,50,0.0,3
167352,224582,--,0.928,0.305,-0.205,63.4,50,0.0,3
167366,224571,--,0.928,0.304,-0.205,63.4,50,0.0,3
167356,224587,--,0.928,0.304,-0.205,63.4,50,0.0,3
167346,224579,--,0.928,0.304,-0.205,63.4,50,0.0,3
167350,224590,--,0.928,0.304,-0.205,63.4,50,0.0,3
167361,224576,--,0.928,0.304,-0.206,63.4,50,0.0,3
167380,224585,--,0.928,0.304,-0.206,63.4,50,0.0,3
167380,224586,--,0.928,0.304,-0.206,63.4,50,0.0,3
167365,224574,--,0.928,0.303,-0.206,63.4,50,0.0,3
167370,224587,--,0.931,0.303,-0.203,63.4,50,0.0,3
167363,224586,--,0.931,0.304,-0.201,63.4,50,0.0,3
167365,224561,--,0.928,0.305,-0.203,63.4,50,0.0,3
167362,224563,--,0.928,0.304,-0.204,63.4,50,0.0,3
167361,224546,--,0.929,0.303,-0.204,63.4,50,0.0,3
167359,224547,--,0.929,0.303,-0.204,63.4,50,0.0,3
167350,224542,--,0.929,0.303,-0.204,63.4,50,0.0,3
167337,224527,--,0.929,0.304,-0.204,63.4,50,0.0,3
167352,224533,--,0.929,0.304,-0.204,63.4,50,0.0,3
167356,224534,--,0.929,0.304,-0.204,63.4,50,0.0,3
167373,224545,--,0.929,0.304,-0.204,63.4,50,0.0,3
167390,224557,--,0.928,0.304,-0.205,63.4,50,0.0,3
167404,224560,--,0.928,0.304,-0.205,63.4,50,0.0,3
167411,224558,--,0.928,0.304,-0.205,63.4,50,0.0,3
167418,224565,--,0.928,0.304,-0.205,63.4,50,0.0,3
167422,224556,--,0.931,0.304,-0.204,63.4,50,0.0,3
167428,224564,--,0.928,0.304,-0.204,63.4,50,0.0,3
167431,224565,--,0.925,0.304,-0.204,63.4,50,0.0,3
167422,224579,--,0.929,0.304,-0.201,63.4,50,0.0,3
167412,224550,--,0.932,0.302,-0.201,63.4,50,0.0,3
167380,224525,--,0.931,0.302,-0.202,63.4,50,0.0,3
167332,224510,--,0.927,0.303,-0.205,63.4,50,0.0,3
167287,224485,--,0.927,0.303,-0.205,63.4,50,0.0,3
167234,224448,--,0.927,0.303,-0.205,63.4,50,0.0,3
167192,224436,--,0.927,0.303,-0.205,63.4,50,0.0,3
167148,224408,--,0.927,0.303,-0.204,63.4,50,0.0,3
167114,224386,--,0.927,0.303,-0.204,63.4,50,0.0,3
167095,224371,--,0.927,0.303,-0.204,63.4,50,0.0,3
167080,224361,--,0.927,0.303,-0.204,63.4,50,0.0,3
167067,224362,--,0.931,0.302,-0.202,63.4,50,0.0,3
167069,224350,--,0.931,0.302,-0.202,63.4,50,0.0,3
167072,224350,--,0.931,0.302,-0.202,63.4,50,0.0,3
167084,224360,--,0.931,0.302,-0.202,63.4,50,0.0,3
167090,224373,--,0.929,0.303,-0.203,63.4,50,0.0,3
167099,224377,--,0.926,0.304,-0.206,63.4,50,0.0,3
167099,224378,--,0.925,0.304,-0.208,63.4,50,0.0,3
167116,224378,--,0.928,0.303,-0.207,63.4,50,0.0,3
167123,224386,--,0.931,0.303,-0.205,63.4,50,0.0,3
167130,224401,--,0.930,0.303,-0.205,63.4,50,0.0,3
167138,224398,--,0.930,0.303,-0.205,63.4,50,0.0,3
167141,224411,--,0.928,0.303,-0.205,63.4,50,0.0,3
167148,224403,--,0.928,0.303,-0.205,63.4,50,0.0,3
167134,224394,--,0.928,0.303,-0.205,63.4,50,0.0,3
167135,224386,--,0.928,0.303,-0.205,63.4,50,0.0,3
167131,224393,--,0.928,0.303,-0.204,63.4,50,0.0,3
167124,224390,--,0.928,0.303,-0.202,63.4,50,0.0,3
167143,224381,--,0.928,0.303,-0.202,63.4,50,0.0,3
167169,224403,--,0.928,0.303,-0.202,63.4,50,0.0,3
167168,224414,--,0.928,0.303,-0.202,63.4,50,0.0,3
167186,224419,--,0.928,0.303,-0.203,63.4,50,0.0,3
167183,224420,--,0.929,0.303,-0.205,63.4,50,0.0,3
167171,224411,--,0.930,0.303,-0.206,63.4,50,0.0,3
167177,224417,--,0.929,0.303,-0.206,63.4,50,0.0,3
167181,224421,--,0.930,0.304,-0.204,63.4,50,0.0,3
167187,224410,--,0.931,0.303,-0.203,63.4,50,0.0,3
167186,224416,--,0.931,0.303,-0.203,63.4,50,0.0,3
167194,224414,--,0.931,0.303,-0.203,63.4,50,0.0,3
167197,224415,--,0.928,0.303,-0.204,63.4,50,0.0,3
167197,224420,--,0.928,0.303,-0.204,63.4,50,0.0,3
167197,224414,--,0.928,0.303,-0.204,63.4,50,0.0,3
167202,224425,--,0.928,0.303,-0.204,63.4,50,0.0,3
167206,224410,--,0.925,0.303,-0.206,63.4,50,0.0,3
167194,224401,--,0.925,0.303,-0.206,63.4,50,0.0,3
167197,224408,--,0.925,0.303,-0.206,63.5,53,0.0,3
167205,224418,--,0.927,0.303,-0.205,63.5,53,0.0,3
167207,224425,--,0.927,0.303,-0.205,63.5,53,0.0,3
167233,224426,--,0.931,0.304,-0.203,63.5,53,0.0,3
167243,224433,--,0.930,0.304,-0.204,63.5,53,0.0,3
167240,224437,--,0.929,0.304,-0.205,63.5,53,0.0,3
167247,224429,--,0.928,0.304,-0.205,63.5,53,0.0,3
167259,224441,--,0.927,0.304,-0.206,63.5,53,0.0,3
167264,224431,--,0.927,0.304,-0.206,63.5,53,0.0,3
167270,224430,--,0.928,0.304,-0.205,63.5,53,0.0,3
167273,224444,--,0.928,0.304,-0.205,63.5,53,0.0,3
167294,224457,--,0.928,0.304,-0.205,63.5,53,0.0,3
167293,224442,--,0.928,0.304,-0.205,63.5,53,0.0,3
167301,224440,--,0.933,0.304,-0.202,63.5,53,0.0,3
167307,224462,--,0.933,0.304,-0.202,63.5,53,0.0,3
167310,224459,--,0.933,0.304,-0.202,63.5,53,0.0,3
167307,224449,--,0.933,0.303,-0.202,63.5,53,0.0,3
167303,224446,--,0.933,0.303,-0.202,63.5,53,0.0,3
167306,224444,--,0.933,0.303,-0.202,63.5,53,0.0,3
167324,224454,--,0.927,0.303,-0.205,63.5,53,0.0,3
167330,224453,--,0.927,0.303,-0.205,63.5,53,0.0,3
167333,224439,--,0.926,0.304,-0.206,63.5,53,0.0,3
167325,224447,--,0.929,0.304,-0.204,63.5,53,0.0,3
167317,224432,--,0.931,0.304,-0.202,63.5,53,0.0,3
167331,224437,--,0.929,0.304,-0.203,63.5,53,0.0,3
167332,224444,--,0.928,0.304,-0.204,63.5,53,0.0,3
167328,224457,--,0.928,0.304,-0.204,63.5,53,0.0,3
167325,224440,--,0.928,0.304,-0.204,63.5,53,0.0,3
167338,224444,--,0.928,0.304,-0.205,63.5,53,0.0,3
167334,224429,--,0.928,0.304,-0.205,63.5,53,0.0,3
167342,224444,--,0.928,0.304,-0.205,63.5,53,0.0,3
167338,224445,--,0.928,0.304,-0.205,63.5,53,0.0,3
167348,224441,--,0.928,0.304,-0.205,63.5,53,0.0,3
167355,224442,--,0.928,0.304,-0.205,63.5,53,0.0,3
167375,224455,--,0.928,0.304,-0.205,63.5,53,0.0,3
167380,224464,--,0.928,0.304,-0.205,63.5,53,0.0,3
167384,224461,--,0.928,0.304,-0.205,63.5,53,0.0,3
167388,224464,--,0.928,0.304,-0.205,63.5,53,0.0,3
167404,224468,--,0.930,0.304,-0.205,63.5,53,0.0,3
167416,224482,--,0.932,0.304,-0.206,63.5,53,0.0,3
167421,224479,--,0.930,0.304,-0.206,63.5,53,0.0,3
167434,224479,--,0.930,0.304,-0.205,63.5,53,0.0,3
167447,224490,--,0.931,0.303,-0.206,63.5,53,0.0,3
167459,224487,--,0.927,0.303,-0.207,63.5,53,0.0,3
167467,224498,--,0.927,0.303,-0.207,63.5,53,0.0,3
167485,224499,--,0.927,0.303,-0.207,63.5,53,0.0,3
167481,224509,--,0.926,0.303,-0.207,63.5,53,0.0,3
167500,224506,--,0.926,0.303,-0.207,63.5,53,0.0,3
167500,224507,--,0.926,0.303,-0.207,63.5,53,0.0,3
167504,224513,--,0.927,0.303,-0.206,63.5,53,0.0,3
167496,224513,--,0.927,0.303,-0.206,63.5,53,0.0,3
167471,224502,--,0.927,0.303,-0.206,63.5,53,0.0,3
167443,224482,--,0.927,0.303,-0.206,63.5,53,0.0,3
167380,224446,--,0.929,0.303,-0.206,63.5,53,0.0,3
167333,224415,--,0.929,0.303,-0.206,63.5,53,0.0,3
167277,224384,--,0.930,0.303,-0.207,63.5,53,0.0,3
167226,224364,--,0.930,0.303,-0.208,63.5,53,0.0,3
167182,224338,--,0.928,0.303,-0.208,63.5,53,0.0,3
167152,224310,--,0.926,0.303,-0.209,63.5,53,0.0,3
167145,224301,--,0.926,0.304,-0.208,63.5,53,0.0,3
167138,224305,--,0.926,0.304,-0.208,63.5,53,0.0,3
167125,224301,--,0.928,0.304,-0.205,63.5,53,0.0,3
167132,224305,--,0.928,0.304,-0.205,63.5,53,0.0,3
167145,224312,--,0.928,0.304,-0.205,63.5,53,0.0,3
167147,224319,--,0.928,0.304,-0.205,63.5,53,0.0,3
167172,224337,--,0.930,0.304,-0.206,63.5,53,0.0,3
167181,224329,--,0.930,0.304,-0.206,63.5,53,0.0,3
167185,224343,--,0.930,0.304,-0.206,63.5,53,0.0,3
167202,224349,--,0.928,0.303,-0.209,63.5,53,0.0,3
167190,224349,--,0.928,0.303,-0.209,63.5,53,0.0,3
167196,224342,--,0.928,0.303,-0.209,63.5,53,0.0,3
167190,224345,--,0.927,0.302,-0.209,63.5,53,0.0,3
167184,224331,--,0.927,0.303,-0.207,63.5,53,0.0,3
167182,224318,--,0.928,0.303,-0.207,63.5,53,0.0,3
167188,224325,--,0.928,0.303,-0.208,63.5,53,97.7,3
167203,224330,--,0.929,0.303,-0.207,63.5,53,97.7,3
167223,224346,--,0.930,0.302,-0.206,63.5,53,97.7,3
167232,224345,--,0.930,0.302,-0.206,63.5,53,97.7,3
167246,224355,--,0.930,0.302,-0.206,63.5,53,97.7,3
167241,224368,--,0.928,0.303,-0.208,63.5,53,97.7,3
167254,224358,--,0.928,0.303,-0.208,63.5,53,97.7,3
167249,224360,--,0.928,0.303,-0.208,63.5,53,97.7,3
167257,224357,--,0.926,0.303,-0.209,63.5,53,97.7,3
167248,224359,--,0.926,0.303,-0.209,63.5,53,97.7,3
167245,224349,--,0.926,0.303,-0.209,63.5,53,97.7,3
167234,224343,--,0.926,0.303,-0.209,63.5,53,97.7,3
167237,224337,--,0.928,0.303,-0.207,63.5,53,97.7,3
167239,224345,--,0.928,0.303,-0.207,63.5,53,97.7,3
167251,224346,--,0.928,0.303,-0.207,63.5,53,97.7,3
167252,224363,--,0.930,0.303,-0.206,63.5,53,97.7,3
167254,224368,--,0.928,0.303,-0.208,63.5,53,97.7,3
167269,224361,--,0.929,0.303,-0.209,63.5,53,97.7,3
167273,224358,--,0.929,0.302,-0.209,63.5,53,97.7,3
167278,224366,--,0.926,0.302,-0.211,63.5,53,97.7,3
167278,224368,--,0.926,0.302,-0.211,63.5,53,97.7,3
167280,224365,--,0.927,0.303,-0.210,63.5,53,97.7,3
167295,224362,--,0.927,0.303,-0.210,63.5,53,97.7,3
167312,224388,--,0.927,0.303,-0.210,63.5,53,97.7,3
167324,224387,--,0.929,0.302,-0.209,63.5,53,97.7,3
167337,224385,--,0.929,0.302,-0.209,63.5,53,97.7,3
167341,224398,--,0.929,0.302,-0.209,63.6,57,97.7,3
167334,224397,--,0.930,0.303,-0.209,63.6,57,97.7,3
167333,224389,--,0.930,0.303,-0.209,63.6,57,97.7,3
167336,224387,--,0.929,0.303,-0.209,63.6,57,97.7,3
167343,224396,--,0.929,0.303,-0.209,63.6,57,97.7,3
167343,224400,--,0.929,0.303,-0.209,63.6,57,97.7,3
167363,224402,--,0.927,0.304,-0.209,63.6,57,97.7,3
167375,224407,--,0.927,0.304,-0.209,63.6,57,97.7,3
167369,224400,--,0.928,0.304,-0.208,63.6,57,97.7,3
167379,224413,--,0.929,0.304,-0.207,63.6,57,97.7,3
167373,224402,--,0.928,0.304,-0.207,63.6,57,97.7,3
167370,224396,--,0.928,0.304,-0.207,63.6,57,97.7,3
167371,224394,--,0.928,0.304,-0.207,63.6,57,97.7,3
167388,224407,--,0.927,0.305,-0.208,63.6,57,97.7,3
167387,224409,--,0.927,0.305,-0.208,63.6,57,97.7,3
167397,224411,--,0.927,0.305,-0.208,63.6,57,97.7,3
167394,224401,--,0.927,0.304,-0.209,63.6,57,97.7,3
167392,224394,--,0.927,0.304,-0.209,63.6,57,97.7,3
167388,224397,--,0.927,0.304,-0.209,63.6,57,97.7,3
167389,224390,--,0.927,0.304,-0.209,63.6,57,97.7,3
167397,224396,--,0.927,0.304,-0.209,63.6,57,97.7,3
167397,224390,--,0.927,0.304,-0.209,63.6,57,97.7,3
167409,224391,--,0.927,0.304,-0.209,63.6,57,97.7,3
167411,224399,--,0.928,0.304,-0.209,63.6,57,97.7,3
167413,224394,--,0.927,0.303,-0.208,63.6,57,97.7,3
167414,224398,--,0.927,0.303,-0.208,63.6,57,97.7,3
167409,224394,--,0.927,0.302,-0.209,63.6,57,97.7,3
167412,224389,--,0.928,0.303,-0.210,63.6,57,97.7,3
167409,224379,--,0.928,0.302,-0.209,63.6,57,97.7,3
167423,224383,--,0.928,0.302,-0.209,63.6,57,97.7,3
167433,224400,--,0.928,0.302,-0.209,63.6,57,97.7,3
167449,224405,--,0.929,0.302,-0.209,63.6,57,97.7,3
167449,224412,--,0.929,0.302,-0.209,63.6,57,97.7,3
167453,224403,--,0.929,0.302,-0.209,63.6,57,97.7,3
167447,224408,--,0.929,0.302,-0.209,63.6,57,97.7,3
167453,224404,--,0.928,0.302,-0.210,63.6,57,97.7,3
167464,224401,--,0.928,0.302,-0.210,63.6,57,97.7,3
167478,224410,--,0.928,0.302,-0.210,63.6,57,97.7,3
167473,224399,--,0.928,0.302,-0.210,63.6,57,97.7,3
167472,224408,--,0.928,0.302,-0.210,63.6,57,97.7,3
167481,224420,--,0.928,0.302,-0.209,63.6,57,97.7,3
167490,224418,--,0.927,0.302,-0.208,63.6,57,97.7,3
167501,224435,--,0.926,0.302,-0.208,63.6,57,97.7,3
167512,224437,--,0.927,0.302,-0.208,63.6,57,97.7,3
167512,224433,--,0.929,0.302,-0.208,63.6,57,97.7,3
167512,224421,--,0.929,0.302,-0.208,63.6,57,97.7,3
167505,224430,--,0.930,0.302,-0.208,63.6,57,97.7,3
167491,224405,--,0.930,0.302,-0.208,63.6,57,97.7,3
167454,224383,--,0.930,0.302,-0.208,63.6,57,97.7,3
167412,224359,--,0.930,0.302,-0.208,63.6,57,97.7,3
167359,224340,--,0.930,0.302,-0.208,63.6,57,97.7,3
167308,224304,--,0.930,0.302,-0.208,63.6,57,97.7,3
167251,224268,--,0.930,0.302,-0.208,63.6,57,97.7,3
167211,224248,--,0.931,0.302,-0.207,63.6,57,97.7,3
167178,224227,--,0.931,0.302,-0.207,63.6,57,97.7,3
167147,224212,--,0.931,0.302,-0.207,63.6,57,97.7,3
167132,224192,--,0.929,0.303,-0.207,63.6,57,97.7,3
167116,224186,--,0.927,0.303,-0.208,63.6,57,97.7,3
167127,224193,--,0.927,0.302,-0.209,63.6,57,97.7,3
167137,224200,--,0.928,0.302,-0.210,63.6,57,97.7,3
167170,224217,--,0.927,0.301,-0.210,63.6,57,97.7,3
167184,224219,--,0.927,0.301,-0.209,63.6,57,97.7,3
167199,224224,--,0.927,0.301,-0.209,63.6,57,97.7,3
167206,224236,--,0.927,0.301,-0.209,63.6,57,97.7,3
167212,224248,--,0.927,0.301,-0.209,63.6,57,97.7,3
167233,224248,--,0.928,0.302,-0.209,63.6,57,97.7,3
167222,224239,--,0.928,0.302,-0.209,63.6,57,97.7,3
167217,224239,--,0.928,0.302,-0.209,63.6,57,97.7,3
167223,224241,--,0.929,0.301,-0.210,63.6,57,97.7,3
167227,224242,--,0.929,0.301,-0.210,63.6,57,97.7,3
167235,224248,--,0.929,0.301,-0.210,63.6,57,97.7,3
167247,224258,--,0.928,0.302,-0.211,63.6,57,97.9,3
167260,224259,--,0.928,0.302,-0.211,63.6,57,97.9,3
167272,224267,--,0.928,0.302,-0.211,63.6,57,97.9,3
167278,224269,--,0.927,0.302,-0.210,63.6,57,97.9,3
167282,224268,--,0.928,0.302,-0.208,63.6,57,97.9,3
167271,224252,--,0.929,0.302,-0.207,63.6,57,97.9,3
167270,224256,--,0.928,0.302,-0.208,63.6,57,97.9,3
167275,224254,--,0.927,0.303,-0.211,63.6,57,97.9,3
167287,224261,--,0.927,0.303,-0.211,63.6,57,97.9,3
167273,224260,--,0.928,0.302,-0.210,63.6,57,97.9,3
167266,224252,--,0.928,0.302,-0.210,63.6,57,97.9,3
167265,224247,--,0.928,0.302,-0.210,63.6,57,97.9,3
167263,224249,--,0.927,0.302,-0.208,63.6,57,97.9,3
167265,224249,--,0.927,0.302,-0.208,63.6,57,97.9,3
167267,224248,--,0.927,0.302,-0.208,63.6,57,97.9,3
167278,224258,--,0.927,0.303,-0.208,63.6,57,97.9,3
167283,224255,--,0.927,0.303,-0.208,63.6,57,97.9,3
167301,224268,--,0.927,0.303,-0.208,63.6,57,97.9,3
167311,224274,--,0.927,0.303,-0.208,63.6,57,97.9,3
167329,224290,--,0.929,0.303,-0.208,63.6,57,97.9,3
167327,224277,--,0.928,0.302,-0.210,63.6,57,97.9,3
167336,224288,--,0.926,0.303,-0.211,63.6,57,97.9,3
167330,224278,--,0.928,0.302,-0.210,63.6,57,97.9,3
167336,224289,--,0.930,0.302,-0.210,63.6,57,97.9,3
167334,224274,--,0.928,0.302,-0.208,63.6,57,97.9,3
167337,224268,--,0.928,0.302,-0.208,63.6,57,97.9,3
167348,224272,--,0.928,0.302,-0.208,63.6,57,97.9,3
167354,224296,--,0.929,0.303,-0.206,63.6,57,97.9,3
167372,224291,--,0.929,0.303,-0.206,63.6,57,97.9,3
167389,224299,--,0.929,0.303,-0.206,63.5,60,97.9,3
167392,224303,--,0.928,0.303,-0.207,63.5,60,97.9,3
167384,224297,--,0.928,0.303,-0.207,63.5,60,97.9,3
167384,224288,--,0.928,0.303,-0.207,63.5,60,97.9,3
167389,224298,--,0.926,0.302,-0.209,63.5,60,97.9,3
167414,224292,--,0.926,0.302,-0.209,63.5,60,97.9,3
167418,224316,--,0.926,0.302,-0.209,63.5,60,97.9,3
167420,224318,--,0.926,0.303,-0.211,63.5,60,97.9,3
167423,224314,--,0.927,0.302,-0.209,63.5,60,97.9,3
167433,224320,--,0.928,0.302,-0.208,63.5,60,97.9,3
167423,224315,--,0.927,0.302,-0.209,63.5,60,97.9,3
167441,224320,--,0.928,0.302,-0.208,63.5,60,97.9,3
167442,224318,--,0.928,0.302,-0.208,63.5,60,97.9,3
167454,224325,--,0.928,0.302,-0.207,63.5,60,97.9,3
167463,224330,--,0.928,0.302,-0.207,63.5,60,97.9,3
167464,224349,--,0.928,0.302,-0.207,63.5,60,97.9,3
167465,224316,--,0.928,0.302,-0.207,63.5,60,97.9,3
167454,224327,--,0.929,0.302,-0.208,63.5,60,97.9,3
167444,224320,--,0.929,0.302,-0.208,63.5,60,97.9,3
167448,224314,--,0.929,0.302,-0.208,63.5,60,97.9,3
167452,224313,--,0.928,0.303,-0.209,63.5,60,97.9,3
167455,224312,--,0.928,0.303,-0.209,63.5,60,97.9,3
167443,224307,--,0.928,0.303,-0.209,63.5,60,97.9,3
167445,224306,--,0.928,0.303,-0.210,63.5,60,97.9,3
167464,224314,--,0.928,0.303,-0.210,63.5,60,97.9,3
167472,224312,--,0.930,0.302,-0.208,63.5,60,97.9,3
167479,224319,--,0.930,0.300,-0.207,63.5,60,97.9,3
167477,224317,--,0.928,0.301,-0.209,63.5,60,97.9,3
167496,224316,--,0.927,0.302,-0.211,63.5,60,97.9,3
167505,224333,--,0.927,0.303,-0.211,63.5,60,97.9,3
167511,224326,--,0.927,0.303,-0.211,63.5,60,97.9,3
167513,224329,--,0.927,0.303,-0.211,63.5,60,97.9,3
167516,224335,--,0.925,0.304,-0.210,63.5,60,97.9,3
167530,224328,--,0.925,0.304,-0.210,63.5,60,97.9,3
167522,224336,--,0.925,0.304,-0.210,63.5,60,97.9,3
167537,224337,--,0.926,0.303,-0.209,63.5,60,97.9,3
167534,224339,--,0.926,0.303,-0.209,63.5,60,97.9,3
167543,224335,--,0.926,0.303,-0.209,63.5,60,97.9,3
167552,224349,--,0.929,0.302,-0.208,63.5,60,97.9,3
167529,224347,--,0.929,0.302,-0.208,63.5,60,97.9,3
167509,224327,--,0.929,0.302,-0.208,63.5,60,97.9,3
167471,224312,--,0.929,0.302,-0.208,63.5,60,97.9,3
167435,224283,--,0.928,0.302,-0.207,63.5,60,97.9,3
167381,224257,--,0.927,0.303,-0.206,63.5,60,97.9,3
167316,224225,--,0.930,0.303,-0.205,63.5,60,97.9,3
167269,224199,--,0.931,0.302,-0.207,63.5,60,97.9,3
167226,224177,--,0.928,0.302,-0.209,63.5,60,97.9,3
167212,224165,--,0.926,0.303,-0.210,63.5,60,97.9,3
167203,224145,--,0.926,0.303,-0.210,63.5,60,97.9,3
167184,224139,--,0.926,0.303,-0.210,63.5,60,97.9,3
167193,224141,--,0.928,0.303,-0.208,63.5,60,97.9,3
167190,224138,--,0.928,0.303,-0.208,63.5,60,97.9,3
167200,224140,--,0.928,0.303,-0.208,63.5,60,97.9,3
167213,224143,--,0.928,0.303,-0.208,63.5,60,97.9,3
167217,224161,--,0.928,0.303,-0.208,63.5,60,97.9,3
167233,224167,--,0.928,0.303,-0.208,63.5,60,97.9,3
167248,224185,--,0.928,0.303,-0.208,63.5,60,97.9,3
167259,224182,--,0.928,0.303,-0.208,63.5,60,97.9,3
167260,224184,--,0.928,0.303,-0.208,63.5,60,97.9,3
167262,224189,--,0.930,0.302,-0.207,63.5,60,97.9,3
167274,224191,--,0.930,0.302,-0.208,63.5,60,97.9,3
167262,224184,--,0.927,0.302,-0.210,63.5,60,97.9,3
167277,224188,--,0.927,0.303,-0.210,63.5,60,97.9,3
167282,224194,--,0.929,0.303,-0.209,63.5,60,97.5,3
167297,224188,--,0.929,0.303,-0.209,63.5,60,97.5,3
167294,224187,--,0.930,0.302,-0.208,63.5,60,97.5,3
167296,224202,--,0.930,0.302,-0.208,63.5,60,97.5,3
167303,224196,--,0.930,0.302,-0.208,63.5,60,97.5,3
167304,224202,--,0.928,0.303,-0.208,63.5,60,97.5,3
167312,224209,--,0.928,0.303,-0.208,63.5,60,97.5,3
167315,224207,--,0.928,0.303,-0.208,63.5,60,97.5,3
167310,224207,--,0.927,0.302,-0.209,63.5,60,97.5,3
167307,224200,--,0.927,0.302,-0.209,63.5,60,97.5,3
167294,224184,--,0.927,0.302,-0.209,63.5,60,97.5,3
167280,224183,--,0.927,0.302,-0.209,63.5,60,97.5,3
167292,224166,--,0.928,0.302,-0.210,63.5,60,97.5,3
167281,224180,--,0.928,0.302,-0.210,63.5,60,97.5,3
167294,224193,--,0.930,0.302,-0.208,63.5,60,97.5,3
167296,224179,--,0.930,0.303,-0.206,63.5,60,97.5,3
167313,224187,--,0.929,0.303,-0.206,63.5,60,97.5,3
167304,224184,--,0.929,0.303,-0.207,63.5,60,97.5,3
167315,224192,--,0.929,0.303,-0.207,63.5,60,97.5,3
167308,224193,--,0.929,0.303,-0.207,63.5,60,97.5,3
167319,224182,--,0.929,0.303,-0.207,63.5,60,97.5,3
167309,224185,--,0.929,0.302,-0.208,63.5,60,97.5,3
167314,224170,--,0.929,0.302,-0.208,63.5,60,97.5,3
167313,224179,--,0.929,0.302,-0.208,63.5,60,97.5,3
167322,224181,--,0.929,0.302,-0.208,63.5,60,97.5,3
167322,224177,--,0.929,0.302,-0.208,63.5,60,97.5,3
167317,224183,--,0.929,0.302,-0.208,63.5,60,97.5,3
167333,224173,--,0.929,0.302,-0.207,63.5,60,97.5,3
167344,224187,--,0.929,0.302,-0.207,63.5,60,97.5,3
167347,224190,--,0.929,0.302,-0.207,63.5,60,97.5,3
167361,224199,--,0.929,0.303,-0.208,63.5,60,97.5,3
167360,224203,--,0.928,0.303,-0.209,63.5,60,97.5,3
167368,224209,--,0.927,0.303,-0.210,63.5,60,97.5,3
167373,224211,--,0.928,0.303,-0.208,63.5,60,97.5,3
167365,224198,--,0.927,0.304,-0.208,63.5,60,97.5,3
167381,224201,--,0.928,0.304,-0.209,63.5,60,97.5,3
167384,224213,--,0.928,0.304,-0.209,63.5,60,97.5,3
167392,224222,--,0.928,0.304,-0.209,63.6,62,97.5,3
167392,224206,--,0.929,0.303,-0.209,63.6,62,97.5,3
167402,224215,--,0.929,0.303,-0.209,63.6,62,97.5,3
167403,224219,--,0.929,0.303,-0.209,63.6,62,97.5,3
167409,224228,--,0.928,0.303,-0.210,63.6,62,97.5,3
167411,224225,--,0.928,0.303,-0.210,63.6,62,97.5,3
167420,224216,--,0.928,0.303,-0.210,63.6,62,97.5,3
167424,224224,--,0.927,0.303,-0.210,63.6,62,97.5,3
167429,224233,--,0.927,0.303,-0.210,63.6,62,97.5,3
167435,224224,--,0.927,0.303,-0.210,63.6,62,97.5,3
167434,224226,--,0.928,0.303,-0.208,63.6,62,97.5,3
167443,224235,--,0.929,0.303,-0.208,63.6,62,97.5,3
167447,224230,--,0.928,0.304,-0.208,63.6,62,97.5,3
167445,224240,--,0.928,0.303,-0.210,63.6,62,97.5,3
167449,224230,--,0.928,0.303,-0.210,63.6,62,97.5,3
167450,224234,--,0.928,0.303,-0.210,63.6,62,97.5,3
167457,224237,--,0.928,0.303,-0.210,63.6,62,97.5,3
167460,224229,--,0.929,0.302,-0.210,63.6,62,97.5,3
167466,224222,--,0.929,0.302,-0.210,63.6,62,97.5,3
167473,224235,--,0.929,0.302,-0.210,63.6,62,97.5,3
167482,224241,--,0.929,0.302,-0.210,63.6,62,97.5,3
167487,224254,--,0.929,0.302,-0.210,63.6,62,97.5,3
167501,224242,--,0.929,0.302,-0.210,63.6,62,97.5,3
167491,224247,--,0.927,0.303,-0.211,63.6,62,97.5,3
167504,224247,--,0.927,0.303,-0.211,63.6,62,97.5,3
167509,224257,--,0.927,0.303,-0.211,63.6,62,97.5,3
167511,224264,--,0.927,0.303,-0.211,63.6,62,97.5,3
167534,224265,--,0.927,0.303,-0.210,63.6,62,97.5,3
167534,224273,--,0.929,0.303,-0.210,63.6,62,97.5,3
167551,224271,--,0.927,0.303,-0.211,63.6,62,97.5,3
167544,224270,--,0.926,0.302,-0.211,63.6,62,97.5,3
167539,224255,--,0.927,0.302,-0.208,63.6,62,97.5,3
167538,224259,--,0.927,0.302,-0.207,63.6,62,97.5,3
167506,224250,--,0.927,0.302,-0.207,63.6,62,97.5,3
167456,224221,--,0.927,0.302,-0.207,63.6,62,97.5,3
167410,224189,--,0.927,0.302,-0.208,63.6,62,97.5,3
167352,224163,--,0.927,0.302,-0.208,63.6,62,97.5,3
167301,224119,--,0.927,0.302,-0.208,63.6,62,97.5,3
167250,224092,--,0.929,0.302,-0.209,63.6,62,97.5,3
167209,224061,--,0.929,0.302,-0.209,63.6,62,97.5,3
167185,224054,--,0.929,0.302,-0.209,63.6,62,97.5,3
167167,224042,--,0.929,0.302,-0.209,63.6,62,97.5,3
167152,224026,--,0.929,0.302,-0.210,63.6,62,97.5,3
167148,224042,--,0.929,0.302,-0.210,63.6,62,97.5,3
167150,224039,--,0.927,0.302,-0.211,63.6,62,97.5,3
167166,224056,--,0.925,0.302,-0.210,63.6,62,97.5,3
167166,224046,--,0.926,0.302,-0.209,63.6,62,97.5,3
167165,224041,--,0.927,0.302,-0.210,63.6,62,97.5,3
167158,224034,--,0.927,0.302,-0.211,63.6,62,97.5,3
167164,224042,--,0.927,0.302,-0.211,63.6,62,97.5,3
167169,224046,--,0.930,0.302,-0.209,63.6,62,97.5,3
167175,224045,--,0.930,0.302,-0.209,63.6,62,97.5,3
167184,224058,--,0.930,0.302,-0.209,63.6,62,97.5,3
167194,224075,--,0.930,0.303,-0.208,63.6,62,97.5,3
167199,224060,--,0.930,0.303,-0.208,63.6,62,97.5,3
167189,224066,--,0.930,0.303,-0.208,63.6,62,97.5,3
167197,224062,--,0.930,0.303,-0.208,63.6,62,97.6,3
167195,224061,--,0.927,0.303,-0.210,63.6,62,97.6,3
167197,224054,--,0.927,0.303,-0.210,63.6,62,97.6,3
167190,224058,--,0.927,0.303,-0.210,63.6,62,97.6,3
167190,224052,--,0.927,0.302,-0.210,63.6,62,97.6,3
167205,224052,--,0.928,0.302,-0.210,63.6,62,97.6,3
167219,224058,--,0.927,0.303,-0.212,63.6,62,97.6,3
167230,224068,--,0.927,0.303,-0.212,63.6,62,97.6,3
167235,224082,--,0.928,0.303,-0.211,63.6,62,97.6,3
167238,224069,--,0.926,0.304,-0.212,63.6,62,97.6,3
167234,224075,--,0.926,0.304,-0.212,63.6,62,97.6,3
167233,224074,--,0.926,0.304,-0.212,63.6,62,97.6,3
167234,224070,--,0.926,0.304,-0.212,63.6,62,97.6,3
167227,224057,--,0.925,0.303,-0.212,63.6,62,97.6,3
167225,224070,--,0.925,0.303,-0.212,63.6,62,97.6,3
167224,224072,--,0.925,0.303,-0.212,63.6,62,97.6,3
167223,224072,--,0.929,0.303,-0.210,63.6,62,97.6,3
167232,224061,--,0.929,0.303,-0.210,63.6,62,97.6,3
167233,224067,--,0.929,0.303,-0.210,63.6,62,97.6,3
167236,224069,--,0.930,0.302,-0.210,63.6,62,97.6,3
167248,224074,--,0.930,0.302,-0.210,63.6,62,97.6,3
167256,224084,--,0.930,0.302,-0.210,63.6,62,97.6,3
167265,224088,--,0.929,0.303,-0.211,63.6,62,97.6,3
167261,224087,--,0.929,0.303,-0.211,63.6,62,97.6,3
167261,224082,--,0.928,0.303,-0.209,63.6,62,97.6,3
167268,224070,--,0.929,0.304,-0.207,63.6,62,97.6,3
167269,224068,--,0.929,0.304,-0.208,63.6,62,97.6,3
167279,224079,--,0.929,0.304,-0.208,63.6,62,97.6,3
167285,224078,--,0.929,0.304,-0.209,63.6,62,97.6,3
167287,224081,--,0.929,0.304,-0.209,63.6,62,97.6,3
167299,224082,--,0.929,0.304,-0.209,63.6,62,97.6,3
167296,224083,--,0.930,0.303,-0.210,63.6,62,97.6,3
167309,224092,--,0.930,0.303,-0.210,63.6,62,97.6,3
167305,224093,--,0.930,0.303,-0.210,63.6,62,97.6,3
167313,224093,--,0.929,0.304,-0.210,63.6,62,97.6,3
167311,224084,--,0.929,0.304,-0.210,63.6,62,97.6,3
167337,224090,--,0.929,0.304,-0.210,63.6,62,97.6,3
167323,224089,--,0.929,0.304,-0.210,63.6,62,97.6,3
167314,224075,--,0.928,0.304,-0.210,63.6,62,97.6,3
167318,224078,--,0.929,0.304,-0.209,63.6,62,97.6,3
167308,224079,--,0.929,0.303,-0.208,63.6,62,97.6,3
167317,224085,--,0.929,0.303,-0.208,63.6,62,97.6,3
167326,224087,--,0.930,0.304,-0.208,63.6,62,97.6,3
167335,224083,--,0.930,0.303,-0.208,63.6,62,97.6,3
167334,224089,--,0.930,0.303,-0.208,63.6,64,97.6,3
167341,224100,--,0.930,0.302,-0.207,63.6,64,97.6,3
167341,224083,--,0.930,0.302,-0.207,63.6,64,97.6,3
167334,224082,--,0.930,0.302,-0.207,63.6,64,97.6,3
167348,224082,--,0.928,0.302,-0.208,63.6,64,97.6,3
167366,224098,--,0.928,0.302,-0.208,63.6,64,97.6,3
167365,224095,--,0.928,0.302,-0.208,63.6,64,97.6,3
167377,224107,--,0.928,0.302,-0.208,63.6,64,97.6,3
167385,224104,--,0.928,0.303,-0.209,63.6,64,97.6,3
167392,224108,--,0.928,0.303,-0.209,63.6,64,97.6,3
167404,224109,--,0.928,0.303,-0.209,63.6,64,97.6,3
167398,224102,--,0.928,0.303,-0.209,63.6,64,97.6,3
167408,224109,--,0.928,0.304,-0.209,63.6,64,97.6,3
167415,224113,--,0.928,0.303,-0.209,63.6,64,97.6,3
167422,224114,--,0.928,0.303,-0.210,63.6,64,97.6,3
167427,224122,--,0.928,0.302,-0.211,63.6,64,97.6,3
167433,224124,--,0.928,0.302,-0.211,63.6,64,97.6,3
167444,224129,--,0.929,0.302,-0.209,63.6,64,97.6,3
167455,224122,--,0.929,0.302,-0.209,63.6,64,97.6,3
167462,224136,--,0.929,0.302,-0.209,63.6,64,97.6,3
167473,224141,--,0.929,0.303,-0.209,63.6,64,97.6,3
167481,224137,--,0.929,0.303,-0.209,63.6,64,97.6,3
167498,224143,--,0.929,0.303,-0.209,63.6,64,97.6,3
167484,224145,--,0.929,0.303,-0.209,63.6,64,97.6,3
167492,224135,--,0.928,0.303,-0.209,63.6,64,97.6,3
167479,224151,--,0.928,0.303,-0.209,63.6,64,97.6,3
167475,224138,--,0.928,0.303,-0.209,63.6,64,97.6,3
167476,224119,--,0.928,0.303,-0.208,63.6,64,97.6,3
167443,224101,--,0.928,0.303,-0.208,63.6,64,97.6,3
167415,224086,--,0.928,0.303,-0.209,63.6,64,97.6,3
167387,224070,--,0.929,0.303,-0.211,63.6,64,97.6,3
167338,224054,--,0.929,0.302,-0.212,63.6,64,97.6,3
167285,224025,--,0.928,0.302,-0.212,63.6,64,97.6,3
167226,223995,--,0.928,0.302,-0.210,63.6,64,97.6,3
167178,223959,--,0.928,0.302,-0.210,63.6,64,97.6,3
167143,223947,--,0.928,0.302,-0.210,63.6,64,97.6,3
167120,223925,--,0.929,0.303,-0.209,63.6,64,97.6,3
167100,223918,--,0.929,0.303,-0.209,63.6,64,97.6,3
167101,223904,--,0.929,0.303,-0.209,63.6,64,97.6,3
167114,223919,--,0.931,0.304,-0.208,63.6,64,97.6,3
167110,223919,--,0.931,0.304,-0.208,63.6,64,97.6,3
167129,223928,--,0.931,0.304,-0.208,63.6,64,97.6,3
167124,223934,--,0.928,0.304,-0.209,63.6,64,97.6,3
167135,223933,--,0.928,0.304,-0.209,63.6,64,97.6,3
167135,223945,--,0.928,0.304,-0.209,63.6,64,97.6,3
167137,223933,--,0.927,0.303,-0.211,63.6,64,97.6,3
167137,223930,--,0.928,0.303,-0.210,63.6,64,97.6,3
167132,223940,--,0.929,0.302,-0.210,63.6,64,97.6,3
167144,223933,--,0.930,0.303,-0.211,63.6,64,97.6,3
167151,223942,--,0.929,0.303,-0.211,63.6,64,97.6,3
167159,223955,--,0.929,0.303,-0.211,63.6,64,97.6,3
167153,223952,--,0.928,0.304,-0.211,63.6,64,97.6,3
167154,223940,--,0.928,0.304,-0.211,63.6,64,97.6,3
167166,223951,--,0.928,0.304,-0.211,63.6,64,97.6,3
167172,223954,--,0.928,0.303,-0.210,63.6,64,97.6,3
167176,223952,--,0.928,0.303,-0.210,63.6,64,97.6,3
167178,223960,--,0.928,0.303,-0.210,63.6,64,97.6,3
167203,223963,--,0.928,0.302,-0.210,63.6,64,97.6,3
167212,223972,--,0.928,0.302,-0.210,63.6,64,97.6,3
167213,223968,--,0.928,0.302,-0.210,63.6,64,97.6,3
167211,223974,--,0.927,0.303,-0.211,63.6,64,97.6,3
167211,223971,--,0.927,0.303,-0.211,63.6,64,97.6,3
167210,223969,--,0.927,0.303,-0.211,63.6,64,97.6,3
167198,223962,--,0.927,0.303,-0.212,63.6,64,97.6,3
167202,223964,--,0.928,0.303,-0.213,63.6,64,97.6,3
167200,223956,--,0.928,0.303,-0.213,63.6,64,97.6,3
167207,223977,--,0.928,0.303,-0.212,63.6,64,97.6,3
167225,223976,--,0.927,0.303,-0.211,63.6,64,97.6,3
167223,223968,--,0.927,0.303,-0.211,63.6,64,97.6,3
167229,223978,--,0.926,0.303,-0.212,63.6,64,97.6,3
167239,223986,--,0.926,0.303,-0.212,63.6,64,97.6,3
167246,223985,--,0.926,0.303,-0.212,63.6,64,97.6,3
167245,223983,--,0.926,0.303,-0.214,63.6,64,97.6,3
167279,223989,--,0.926,0.303,-0.214,63.6,64,97.6,3
167273,223992,--,0.926,0.303,-0.214,63.6,64,97.6,3
167281,224000,--,0.926,0.302,-0.214,63.6,64,97.6,3
167279,223997,--,0.926,0.302,-0.214,63.6,64,97.6,3
167292,224006,--,0.926,0.302,-0.214,63.6,64,97.6,3
167302,224014,--,0.926,0.302,-0.214,63.6,64,97.6,3
167307,224010,--,0.927,0.302,-0.212,63.6,64,97.6,3
167309,224003,--,0.929,0.302,-0.210,63.6,64,97.6,3
167323,224012,--,0.930,0.302,-0.209,63.6,64,97.6,3
167331,224014,--,0.927,0.303,-0.210,63.6,64,97.6,3
167328,224019,--,0.925,0.302,-0.212,63.6,64,97.6,3
167337,224013,--,0.927,0.302,-0.211,63.6,64,97.6,3
167336,224017,--,0.927,0.302,-0.211,63.6,64,97.6,3
167350,224016,--,0.927,0.302,-0.211,63.6,64,97.6,3
167341,224015,--,0.928,0.303,-0.211,63.6,64,97.6,3
167329,224018,--,0.928,0.303,-0.211,63.6,64,97.6,3
167340,224012,--,0.928,0.303,-0.211,63.6,64,97.6,3
167341,224019,--,0.928,0.303,-0.211,63.6,64,97.6,3
167364,224020,--,0.928,0.302,-0.211,63.6,64,97.6,3
167355,224024,--,0.928,0.302,-0.211,63.6,64,97.6,3
167369,224029,--,0.928,0.302,-0.211,63.6,64,97.6,3
167370,224032,--,0.929,0.302,-0.211,63.6,64,97.6,3
167372,224030,--,0.929,0.302,-0.211,63.6,64,97.6,3
167379,224031,--,0.929,0.302,-0.211,63.6,64,97.6,3
167376,224030,--,0.929,0.302,-0.212,63.6,64,97.6,3
167370,224022,--,0.928,0.303,-0.212,63.6,64,97.6,3
167383,224029,--,0.928,0.303,-0.210,63.6,64,97.6,3
167390,224036,--,0.929,0.303,-0.211,63.6,66,97.6,3
167402,224039,--,0.928,0.303,-0.211,63.6,66,97.6,3
167416,224047,--,0.927,0.303,-0.211,63.6,66,97.6,3
167428,224046,--,0.927,0.303,-0.211,63.6,66,97.6,3
167422,224049,--,0.929,0.303,-0.211,63.6,66,97.6,3
167429,224046,--,0.929,0.303,-0.211,63.6,66,97.6,3
167441,224049,--,0.929,0.303,-0.211,63.6,66,97.6,3
167449,224052,--,0.929,0.303,-0.211,63.6,66,97.6,3
167448,224051,--,0.930,0.303,-0.211,63.6,66,97.6,3
167464,224056,--,0.930,0.303,-0.211,63.6,66,97.6,3
167469,224061,--,0.930,0.303,-0.211,63.6,66,97.6,3
167477,224068,--,0.929,0.303,-0.211,63.6,66,97.6,3
167472,224061,--,0.929,0.303,-0.211,63.6,66,97.6,3
167480,224054,--,0.929,0.303,-0.211,63.6,66,97.6,3
167489,224076,--,0.927,0.304,-0.213,63.6,66,97.6,3
167500,224082,--,0.927,0.303,-0.213,63.6,66,97.6,3
167499,224061,--,0.930,0.302,-0.212,63.6,66,97.6,3
167496,224069,--,0.930,0.303,-0.210,63.6,66,97.6,3
167514,224085,--,0.928,0.303,-0.211,63.6,66,97.6,3
167534,224081,--,0.928,0.303,-0.211,63.6,66,97.6,3
167532,224087,--,0.928,0.303,-0.211,63.6,66,97.6,3
167535,224092,--,0.925,0.302,-0.213,63.6,66,97.6,3
167542,224093,--,0.925,0.302,-0.213,63.6,66,97.6,3
167542,224087,--,0.925,0.302,-0.213,63.6,66,97.6,3
167539,224083,--,0.925,0.302,-0.214,63.6,66,97.6,3
167519,224067,--,0.925,0.302,-0.214,63.6,66,97.6,3
167486,224057,--,0.925,0.302,-0.214,63.6,66,97.6,3
167430,224020,--,0.927,0.302,-0.212,63.6,66,97.6,3
167381,223978,--,0.927,0.302,-0.212,63.6,66,97.6,3
167308,223944,--,0.927,0.302,-0.212,63.6,66,97.6,3
167257,223923,--,0.927,0.302,-0.212,63.6,66,97.6,3
167215,223894,--,0.929,0.302,-0.211,63.6,66,97.6,3
167173,223884,--,0.929,0.301,-0.211,63.6,66,97.6,3
167144,223859,--,0.929,0.302,-0.211,63.6,66,97.6,3
167126,223845,--,0.928,0.302,-0.211,63.6,66,97.6,3
167119,223837,--,0.928,0.303,-0.211,63.6,66,97.6,3
167103,223839,--,0.927,0.304,-0.211,63.6,66,97.6,3
167111,223832,--,0.927,0.304,-0.211,63.6,66,97.6,3
167124,223836,--,0.927,0.304,-0.211,63.6,66,97.6,3
167117,223830,--,0.926,0.303,-0.214,63.6,66,97.6,3
167129,223838,--,0.926,0.303,-0.214,63.6,66,97.6,3
167139,223856,--,0.926,0.303,-0.214,63.6,66,97.6,3
167143,223858,--,0.928,0.302,-0.215,63.6,66,97.6,3
167143,223850,--,0.928,0.302,-0.215,63.6,66,97.6,3
167139,223860,--,0.928,0.302,-0.215,63.6,66,97.6,3
167140,223865,--,0.928,0.302,-0.215,63.6,66,97.6,3
167153,223850,--,0.928,0.302,-0.215,63.6,66,97.6,3
167150,223850,--,0.928,0.302,-0.215,63.6,66,97.6,3
167151,223857,--,0.929,0.303,-0.212,63.6,66,97.6,3
167153,223864,--,0.929,0.303,-0.211,63.6,66,97.6,3
167172,223857,--,0.926,0.303,-0.213,63.6,66,97.6,3
167178,223876,--,0.925,0.303,-0.215,63.6,66,97.6,3
167185,223876,--,0.926,0.302,-0.215,63.6,66,97.6,3
167187,223872,--,0.926,0.302,-0.215,63.6,66,97.6,3
167203,223886,--,0.927,0.302,-0.214,63.6,66,97.6,3
167209,223884,--,0.927,0.302,-0.214,63.6,66,97.6,3
167195,223876,--,0.927,0.302,-0.214,63.6,66,97.6,3
167198,223883,--,0.930,0.302,-0.213,63.6,66,97.6,3
167195,223870,--,0.930,0.302,-0.213,63.6,66,97.6,3
167191,223871,--,0.930,0.302,-0.213,63.6,66,97.6,3
167191,223870,--,0.930,0.302,-0.212,63.6,66,97.6,3
167193,223879,--,0.930,0.302,-0.212,63.6,66,97.6,3
167175,223869,--,0.930,0.302,-0.212,63.6,66,97.6,3
167189,223874,--,0.928,0.303,-0.212,63.6,66,97.6,3
167190,223865,--,0.928,0.303,-0.212,63.6,66,97.6,3
167182,223857,--,0.928,0.303,-0.214,63.6,66,97.6,3
167180,223859,--,0.929,0.302,-0.214,63.6,66,97.6,3
167190,223862,--,0.928,0.302,-0.213,63.6,66,97.6,3
167201,223874,--,0.928,0.302,-0.212,63.6,66,97.6,3
167215,223871,--,0.927,0.302,-0.212,63.6,66,97.6,3
167227,223877,--,0.927,0.302,-0.212,63.6,66,97.6,3
167230,223882,--,0.927,0.302,-0.212,63.6,66,97.6,3
167237,223875,--,0.927,0.302,-0.212,63.6,66,97.6,3
167243,223888,--,0.927,0.302,-0.213,63.6,66,97.6,3
167255,223895,--,0.927,0.302,-0.213,63.6,66,97.6,3
167258,223887,--,0.927,0.302,-0.213,63.6,66,97.6,3
167272,223904,--,0.928,0.302,-0.213,63.6,66,97.6,3
167275,223915,--,0.928,0.302,-0.213,63.6,66,97.6,3
167285,223905,--,0.928,0.302,-0.213,63.6,66,97.6,3
167285,223905,--,0.929,0.302,-0.213,63.6,66,97.6,3
167291,223902,--,0.929,0.302,-0.213,63.6,66,97.6,3
167301,223922,--,0.929,0.302,-0.213,63.6,66,97.6,3
167305,223910,--,0.928,0.302,-0.212,63.6,66,97.6,3
167304,223921,--,0.928,0.302,-0.212,63.6,66,97.6,3
167323,223928,--,0.927,0.302,-0.213,63.6,66,97.6,3
167333,223926,--,0.926,0.301,-0.215,63.6,66,97.6,3
167330,223918,--,0.926,0.301,-0.214,63.6,66,97.6,3
167339,223931,--,0.926,0.301,-0.214,63.6,66,97.6,3
167345,223929,--,0.928,0.302,-0.212,63.6,66,97.6,3
167337,223927,--,0.928,0.302,-0.212,63.6,66,97.6,3
167343,223925,--,0.928,0.302,-0.212,63.6,66,97.6,3
167352,223926,--,0.929,0.302,-0.212,63.6,66,97.6,3
167364,223935,--,0.929,0.302,-0.212,63.6,66,97.6,3
167372,223943,--,0.929,0.302,-0.212,63.6,66,97.6,3
167382,223945,--,0.930,0.303,-0.213,63.6,66,97.6,3
167374,223940,--,0.930,0.303,-0.213,63.6,66,97.6,3
167372,223945,--,0.930,0.303,-0.213,63.6,66,97.6,3
167388,223946,--,0.929,0.303,-0.214,63.6,66,97.6,3
167395,223948,--,0.929,0.303,-0.214,63.6,66,97.6,3
167398,223950,--,0.927,0.303,-0.214,63.6,66,97.6,3
167408,223958,--,0.928,0.304,-0.212,63.6,68,97.6,3
167406,223952,--,0.929,0.304,-0.211,63.6,68,97.6,3
167413,223965,--,0.929,0.303,-0.213,63.6,68,97.6,3
167434,223954,--,0.928,0.303,-0.214,63.6,68,97.6,3
167423,223961,--,0.928,0.303,-0.214,63.6,68,97.6,3
167431,223963,--,0.927,0.303,-0.214,63.6,68,97.6,3
167437,223970,--,0.927,0.303,-0.214,63.6,68,97.6,3
167444,223973,--,0.927,0.303,-0.214,63.6,68,97.6,3
167468,223980,--,0.927,0.302,-0.214,63.6,68,97.6,3
167467,223972,--,0.927,0.302,-0.214,63.6,68,97.6,3
167486,223987,--,0.927,0.302,-0.214,63.6,68,97.6,3
167477,223980,--,0.927,0.302,-0.214,63.6,68,97.6,3
167484,223984,--,0.927,0.302,-0.214,63.6,68,97.6,3
167486,223986,--,0.927,0.302,-0.214,63.6,68,97.6,3
167489,223971,--,0.927,0.302,-0.214,63.6,68,97.6,3
167477,223987,--,0.927,0.302,-0.214,63.6,68,97.6,3
167481,223969,--,0.927,0.302,-0.214,63.6,68,97.6,3
167489,223985,--,0.927,0.303,-0.213,63.6,68,97.6,3
167496,223983,--,0.927,0.303,-0.212,63.6,68,97.6,3
167494,223992,--,0.926,0.303,-0.212,63.6,68,97.6,3
167485,223969,--,0.926,0.303,-0.212,63.6,68,97.6,3
167474,223964,--,0.927,0.302,-0.214,63.6,68,97.6,3
167437,223952,--,0.927,0.302,-0.214,63.6,68,97.6,3
167386,223936,--,0.927,0.302,-0.214,63.6,68,97.6,3
167338,223900,--,0.929,0.302,-0.214,63.6,68,97.6,3
167290,223871,--,0.929,0.302,-0.214,63.6,68,97.6,3
167250,223857,--,0.929,0.302,-0.214,63.6,68,97.6,3
167203,223824,--,0.929,0.302,-0.214,63.6,68,97.6,3
167167,223808,--,0.930,0.302,-0.212,63.6,68,97.6,3
167141,223784,--,0.930,0.302,-0.212,63.6,68,97.6,3
167145,223778,--,0.930,0.302,-0.212,63.6,68,97.6,3
167139,223786,--,0.929,0.304,-0.213,63.6,68,97.6,3
167137,223784,--,0.929,0.304,-0.213,63.6,68,97.6,3
167136,223786,--,0.928,0.303,-0.213,63.6,68,97.6,3
167156,223776,--,0.928,0.303,-0.213,63.6,68,97.6,3
167156,223786,--,0.926,0.303,-0.214,63.6,68,97.6,3
167171,223799,--,0.925,0.303,-0.215,63.6,68,97.6,3
167184,223804,--,0.927,0.304,-0.214,63.6,68,97.6,3
167183,223803,--,0.927,0.304,-0.214,63.6,68,97.6,3
167204,223802,--,0.928,0.304,-0.213,63.6,68,97.6,3
167202,223814,--,0.928,0.304,-0.213,63.6,68,97.6,3
167205,223811,--,0.928,0.304,-0.213,63.6,68,97.6,3
167213,223824,--,0.928,0.304,-0.213,63.6,68,97.6,3
167227,223822,--,0.928,0.303,-0.213,63.6,68,97.6,3
167223,223823,--,0.928,0.303,-0.213,63.6,68,97.6,3
167232,223823,--,0.928,0.303,-0.213,63.6,68,97.6,3
167235,223819,--,0.929,0.302,-0.210,63.6,68,97.6,3
167248,223834,--,0.929,0.302,-0.210,63.6,68,97.6,3
167267,223847,--,0.929,0.302,-0.210,63.6,68,97.6,3
167276,223853,--,0.927,0.303,-0.211,63.6,68,97.6,3
167265,223851,--,0.924,0.304,-0.214,63.6,68,97.6,3
167253,223835,--,0.927,0.304,-0.214,63.6,68,97.6,3
167250,223830,--,0.929,0.302,-0.214,63.6,68,97.6,3
167242,223825,--,0.929,0.302,-0.213,63.6,68,97.6,3
167238,223824,--,0.929,0.302,-0.210,63.6,68,97.6,3
167238,223822,--,0.929,0.302,-0.210,63.6,68,97.6,3
167248,223827,--,0.929,0.302,-0.210,63.6,68,97.6,3
167248,223834,--,0.929,0.302,-0.210,63.6,68,97.6,3
167251,223835,--,0.928,0.303,-0.210,63.6,68,97.6,3
167252,223830,--,0.928,0.303,-0.210,63.6,68,97.6,3
167251,223830,--,0.928,0.303,-0.210,63.6,68,97.6,3
167252,223824,--,0.928,0.304,-0.211,63.6,68,97.6,3
167259,223833,--,0.928,0.304,-0.211,63.6,68,97.6,3
167255,223815,--,0.928,0.304,-0.211,63.6,68,97.6,3
167265,223826,--,0.927,0.304,-0.212,63.6,68,97.6,3
167270,223830,--,0.927,0.304,-0.212,63.6,68,97.6,3
167289,223830,--,0.927,0.304,-0.212,63.6,68,97.6,3
167297,223837,--,0.927,0.304,-0.213,63.6,68,97.6,3
167315,223853,--,0.928,0.303,-0.212,63.6,68,97.6,3
167316,223855,--,0.930,0.303,-0.211,63.6,68,97.6,3
167332,223855,--,0.928,0.303,-0.211,63.6,68,97.6,3
167337,223860,--,0.926,0.303,-0.211,63.6,68,97.6,3
167357,223873,--,0.926,0.303,-0.211,63.6,68,97.6,3
167343,223868,--,0.926,0.303,-0.212,63.6,68,97.6,3
167347,223845,--,0.926,0.303,-0.212,63.6,68,97.6,3
167349,223857,--,0.926,0.303,-0.212,63.6,68,97.6,3
167346,223839,--,0.927,0.304,-0.212,63.6,68,97.6,3
167359,223864,--,0.927,0.304,-0.212,63.6,68,97.6,3
167357,223857,--,0.927,0.304,-0.212,63.6,68,97.6,3
167370,223867,--,0.929,0.303,-0.212,63.6,68,97.6,3
167381,223869,--,0.929,0.303,-0.212,63.6,68,97.6,3
167386,223874,--,0.929,0.303,-0.212,63.6,68,97.6,3
167396,223878,--,0.929,0.303,-0.212,63.6,68,97.6,3
167410,223886,--,0.930,0.302,-0.212,63.6,68,97.6,3
167413,223893,--,0.926,0.302,-0.213,63.6,68,97.6,3
167406,223892,--,0.924,0.303,-0.212,63.6,68,97.6,3
167414,223883,--,0.926,0.303,-0.212,63.6,68,97.6,3
167417,223884,--,0.928,0.303,-0.212,63.6,68,97.6,3
167424,223895,--,0.928,0.303,-0.212,63.6,68,97.6,3
167422,223894,--,0.928,0.303,-0.212,63.6,68,97.6,3
167423,223880,--,0.928,0.303,-0.212,63.6,68,97.6,3
167429,223893,--,0.926,0.303,-0.214,63.6,68,97.6,3
167429,223889,--,0.926,0.303,-0.214,63.6,68,97.6,3
167438,223898,--,0.926,0.303,-0.214,63.6,68,97.6,3
167443,223900,--,0.926,0.303,-0.214,63.6,68,97.6,3
167439,223899,--,0.926,0.303,-0.214,63.6,68,97.6,3
167451,223895,--,0.926,0.303,-0.214,63.6,68,97.6,3
167452,223897,--,0.926,0.303,-0.214,63.6,68,97.6,3
167452,223894,--,0.927,0.303,-0.214,63.6,68,97.6,3
167458,223902,--,0.927,0.303,-0.214,63.6,68,97.6,3
167463,223901,--,0.927,0.303,-0.214,63.5,69,97.6,3
167467,223902,--,0.927,0.302,-0.213,63.5,69,97.6,3
167481,223910,--,0.928,0.302,-0.213,63.5,69,97.6,3
167489,223926,--,0.928,0.302,-0.213,63.5,69,97.6,3
167497,223919,--,0.927,0.302,-0.214,63.5,69,97.6,3
167499,223926,--,0.927,0.303,-0.213,63.5,69,97.6,3
167514,223927,--,0.927,0.303,-0.212,63.5,69,97.6,3
167528,223952,--,0.927,0.303,-0.212,63.5,69,97.6,3
167539,223946,--,0.927,0.303,-0.212,63.5,69,97.6,3
167549,223940,--,0.927,0.303,-0.212,63.5,69,97.6,3
167554,223942,--,0.927,0.303,-0.212,63.5,69,97.6,3
167559,223939,--,0.927,0.303,-0.212,63.5,69,97.6,3
167554,223942,--,0.927,0.303,-0.212,63.5,69,97.6,3
167549,223936,--,0.926,0.303,-0.213,63.5,69,97.6,3
167543,223917,--,0.926,0.303,-0.213,63.5,69,97.6,3
167511,223913,--,0.926,0.303,-0.213,63.5,69,97.6,3
167474,223893,--,0.928,0.303,-0.214,63.5,69,97.6,3
167424,223868,--,0.928,0.303,-0.214,63.5,69,97.6,3
167381,223837,--,0.929,0.303,-0.214,63.5,69,97.6,3
167329,223818,--,0.929,0.302,-0.213,63.5,69,97.6,3
167285,223789,--,0.929,0.302,-0.212,63.5,69,97.6,3
167235,223761,--,0.929,0.302,-0.212,63.5,69,97.6,3
167212,223746,--,0.928,0.302,-0.212,63.5,69,97.6,3
167189,223726,--,0.928,0.302,-0.212,63.5,69,97.6,3
167168,223722,--,0.928,0.302,-0.212,63.5,69,97.6,3
167152,223711,--,0.927,0.302,-0.212,63.5,69,97.6,3
167156,223715,--,0.927,0.302,-0.212,63.5,69,97.6,3
167167,223716,--,0.927,0.302,-0.212,63.5,69,97.6,3
167167,223713,--,0.927,0.302,-0.211,63.5,69,97.6,3
167167,223726,--,0.927,0.302,-0.211,63.5,69,97.6,3
167189,223739,--,0.927,0.302,-0.211,63.5,69,97.6,3
167201,223728,--,0.927,0.302,-0.211,63.5,69,97.6,3
167207,223747,--,0.927,0.302,-0.211,63.5,69,97.6,3
167211,223740,--,0.927,0.302,-0.211,63.5,69,97.6,3
167220,223744,--,0.929,0.302,-0.210,63.5,69,97.6,3
167227,223749,--,0.928,0.303,-0.210,63.5,69,97.6,3
167222,223740,--,0.927,0.303,-0.212,63.5,69,97.6,3
167216,223745,--,0.928,0.303,-0.213,63.5,69,97.6,3
167229,223749,--,0.928,0.303,-0.212,63.5,69,97.6,3
167231,223756,--,0.928,0.303,-0.212,63.5,69,97.6,3
167241,223754,--,0.927,0.303,-0.212,63.5,69,97.6,3
167260,223766,--,0.927,0.303,-0.212,63.5,69,97.6,3
167264,223764,--,0.927,0.303,-0.212,63.5,69,97.6,3
167278,223779,--,0.927,0.303,-0.212,63.5,69,97.6,3
167297,223786,--,0.927,0.303,-0.212,63.5,69,97.6,3
167301,223792,--,0.927,0.303,-0.212,63.5,69,97.6,3
167314,223797,--,0.928,0.303,-0.212,63.5,69,97.6,3
167308,223797,--,0.928,0.303,-0.212,63.5,69,97.6,3
167313,223802,--,0.928,0.303,-0.212,63.5,69,97.6,3
167309,223787,--,0.928,0.303,-0.212,63.5,69,97.6,3
167309,223791,--,0.928,0.303,-0.212,63.5,69,97.6,3
167293,223799,--,0.928,0.303,-0.212,63.5,69,97.6,3
167300,223789,--,0.928,0.303,-0.212,63.5,69,97.6,3
167296,223762,--,0.927,0.303,-0.213,63.5,69,97.6,3
167303,223775,--,0.928,0.303,-0.213,63.5,69,97.6,3
167297,223779,--,0.928,0.302,-0.213,63.5,69,97.6,3
167301,223785,--,0.927,0.303,-0.214,63.5,69,97.6,3
167305,223770,--,0.927,0.303,-0.214,63.5,69,97.6,3
167301,223782,--,0.927,0.302,-0.213,63.5,69,97.6,3
167302,223776,--,0.927,0.302,-0.213,63.5,69,97.6,3
167325,223784,--,0.927,0.302,-0.213,63.5,69,97.6,3
167333,223802,--,0.928,0.302,-0.213,63.5,69,97.6,3
167346,223799,--,0.928,0.302,-0.213,63.5,69,97.6,3
167347,223802,--,0.928,0.302,-0.213,63.5,69,97.6,3
167358,223813,--,0.928,0.302,-0.213,63.5,69,97.6,3
167371,223816,--,0.928,0.302,-0.213,63.5,69,97.6,3
167379,223815,--,0.928,0.302,-0.213,63.5,69,97.6,3
167382,223815,--,0.928,0.302,-0.213,63.5,69,97.6,3
167380,223816,--,0.927,0.302,-0.213,63.5,69,97.6,3
167392,223811,--,0.928,0.302,-0.212,63.5,69,97.6,3
167399,223820,--,0.928,0.302,-0.213,63.5,69,97.6,3
167399,223817,--,0.927,0.302,-0.214,63.5,69,97.6,3
167398,223809,--,0.927,0.303,-0.215,63.5,69,97.6,3
167397,223822,--,0.927,0.303,-0.215,63.5,69,97.6,3
167409,223822,--,0.927,0.303,-0.215,63.5,69,97.6,3
167410,223834,--,0.927,0.303,-0.215,63.5,69,97.6,3
167411,223816,--,0.928,0.302,-0.214,63.5,69,97.6,3
167410,223824,--,0.928,0.302,-0.214,63.5,69,97.6,3
167420,223819,--,0.928,0.302,-0.214,63.5,69,97.6,3
167434,223823,--,0.928,0.302,-0.214,63.5,69,97.6,3
167437,223835,--,0.928,0.302,-0.213,63.5,69,97.6,3
167445,223837,--,0.928,0.302,-0.213,63.5,69,97.6,3
167438,223840,--,0.928,0.302,-0.213,63.5,69,97.6,3
167443,223829,--,0.926,0.302,-0.213,63.5,69,97.6,3
167458,223842,--,0.926,0.302,-0.213,63.5,69,97.6,3
167453,223835,--,0.926,0.302,-0.213,63.5,69,97.6,3
167461,223836,--,0.926,0.302,-0.214,63.5,69,97.6,3
167458,223830,--,0.928,0.302,-0.214,63.5,69,97.6,3
167456,223831,--,0.928,0.302,-0.214,63.5,69,97.6,3
167458,223834,--,0.927,0.302,-0.214,63.5,69,97.6,3
167463,223826,--,0.927,0.303,-0.211,63.5,69,97.6,3
167477,223837,--,0.925,0.303,-0.212,63.5,69,97.6,3
167477,223833,--,0.925,0.303,-0.212,63.5,69,97.6,3
167490,223843,--,0.925,0.303,-0.212,63.5,69,97.6,3
167486,223847,--,0.925,0.303,-0.212,63.5,69,97.6,3
167498,223848,--,0.925,0.303,-0.214,63.5,69,97.6,3
167509,223853,--,0.925,0.303,-0.214,63.5,69,97.6,3
167506,223858,--,0.925,0.303,-0.214,63.5,69,97.6,3
167513,223859,--,0.928,0.302,-0.214,63.5,69,97.6,3
167528,223867,--,0.928,0.302,-0.214,63.5,69,97.6,3
167536,223870,--,0.928,0.302,-0.214,63.4,70,97.6,3
167540,223868,--,0.929,0.300,-0.213,63.4,70,97.6,3
167544,223876,--,0.929,0.300,-0.213,63.4,70,97.6,3
167553,223880,--,0.928,0.301,-0.212,63.4,70,97.6,3
167583,223900,--,0.929,0.302,-0.210,63.4,70,97.6,3
167581,223904,--,0.928,0.303,-0.210,63.4,70,97.6,3
167593,223896,--,0.926,0.303,-0.213,63.4,70,97.6,3
167606,223903,--,0.926,0.302,-0.213,63.4,70,97.6,3
167603,223910,--,0.926,0.302,-0.213,63.4,70,97.6,3
167607,223903,--,0.926,0.302,-0.213,63.4,70,97.6,3
167600,223898,--,0.928,0.302,-0.212,63.4,70,97.6,3
167590,223884,--,0.928,0.302,-0.212,63.4,70,97.6,3
167555,223871,--,0.928,0.302,-0.212,63.4,70,97.6,3
167517,223855,--,0.929,0.302,-0.212,63.4,70,97.6,3
167478,223827,--,0.929,0.302,-0.212,63.4,70,97.6,3
167435,223809,--,0.929,0.302,-0.212,63.4,70,97.6,3
167384,223768,--,0.927,0.302,-0.214,63.4,70,97.6,3
167332,223757,--,0.927,0.302,-0.214,63.4,70,97.6,3
167304,223717,--,0.927,0.302,-0.214,63.4,70,97.6,3
167267,223713,--,0.927,0.302,-0.214,63.4,70,97.6,3
167255,223704,--,0.927,0.303,-0.214,63.4,70,97.6,3
167235,223690,--,0.928,0.303,-0.212,63.4,70,97.6,3
167232,223689,--,0.928,0.303,-0.212,63.4,70,97.6,3
167233,223690,--,0.927,0.302,-0.212,63.4,70,97.6,3
167241,223692,--,0.927,0.302,-0.213,63.4,70,97.6,3
167258,223715,--,0.926,0.302,-0.214,63.4,70,97.6,3
167256,223708,--,0.926,0.302,-0.214,63.4,70,97.6,3
167267,223706,--,0.926,0.302,-0.214,63.4,70,97.6,3
167279,223717,--,0.928,0.302,-0.213,63.4,70,97.6,3
167286,223721,--,0.928,0.302,-0.213,63.4,70,97.6,3
167282,223728,--,0.928,0.302,-0.213,63.4,70,97.6,3
167284,223727,--,0.929,0.302,-0.213,63.4,70,97.6,3
167291,223718,--,0.929,0.302,-0.213,63.4,70,97.6,3
167276,223711,--,0.929,0.302,-0.213,63.4,70,97.6,3
167284,223717,--,0.929,0.302,-0.213,63.4,70,97.6,3
167279,223718,--,0.928,0.302,-0.213,63.4,70,97.7,3
167282,223713,--,0.928,0.302,-0.213,63.4,70,97.7,3
167297,223711,--,0.928,0.302,-0.213,63.4,70,97.7,3
167297,223722,--,0.928,0.302,-0.213,63.4,70,97.7,3
167308,223731,--,0.927,0.302,-0.213,63.4,70,97.7,3
167326,223739,--,0.927,0.302,-0.214,63.4,70,97.7,3
167332,223744,--,0.927,0.303,-0.214,63.4,70,97.7,3
167327,223744,--,0.927,0.303,-0.214,63.4,70,97.7,3
167332,223734,--,0.928,0.303,-0.213,63.4,70,97.7,3
167336,223744,--,0.928,0.303,-0.213,63.4,70,97.7,3
167329,223733,--,0.928,0.303,-0.213,63.4,70,97.7,3
167330,223739,--,0.928,0.303,-0.213,63.4,70,97.7,3
167324,223739,--,0.929,0.302,-0.213,63.4,70,97.7,3
167324,223733,--,0.929,0.302,-0.213,63.4,70,97.7,3
167325,223733,--,0.929,0.302,-0.213,63.4,70,97.7,3
167309,223737,--,0.928,0.302,-0.212,63.4,70,97.7,3
167323,223735,--,0.928,0.302,-0.212,63.4,70,97.7,3
167337,223735,--,0.928,0.302,-0.212,63.4,70,97.7,3
167329,223728,--,0.927,0.302,-0.211,63.4,70,97.7,3
167340,223731,--,0.927,0.302,-0.211,63.4,70,97.7,3
167344,223741,--,0.927,0.302,-0.212,63.4,70,97.7,3
167342,223733,--,0.927,0.303,-0.213,63.4,70,97.7,3
167358,223733,--,0.928,0.303,-0.213,63.4,70,97.7,3
167362,223740,--,0.927,0.303,-0.213,63.4,70,97.7,3
167377,223743,--,0.927,0.303,-0.213,63.4,70,97.7,3
167386,223755,--,0.927,0.303,-0.213,63.4,70,97.7,3
167397,223760,--,0.927,0.303,-0.213,63.4,70,97.7,3
167394,223753,--,0.926,0.303,-0.212,63.4,70,97.7,3
167401,223751,--,0.926,0.303,-0.212,63.4,70,97.7,3
167417,223764,--,0.926,0.303,-0.212,63.4,70,97.7,3
167418,223774,--,0.926,0.303,-0.212,63.4,70,97.7,3
167433,223773,--,0.926,0.303,-0.212,63.4,70,97.7,3
167434,223774,--,0.926,0.303,-0.212,63.4,70,97.7,3
167429,223774,--,0.927,0.302,-0.212,63.4,70,97.7,3
167449,223779,--,0.927,0.302,-0.212,63.4,70,97.7,3
167452,223774,--,0.927,0.302,-0.212,63.4,70,97.7,3
167450,223788,--,0.927,0.302,-0.213,63.4,70,97.7,3
167455,223786,--,0.927,0.302,-0.212,63.4,70,97.7,3
167460,223800,--,0.928,0.302,-0.212,63.4,70,97.7,3
167468,223796,--,0.928,0.302,-0.213,63.4,70,97.7,3
167465,223783,--,0.928,0.303,-0.214,63.4,70,97.7,3
167465,223794,--,0.928,0.303,-0.214,63.4,70,97.7,3
167485,223790,--,0.927,0.303,-0.214,63.4,70,97.7,3
167477,223791,--,0.927,0.303,-0.214,63.4,70,97.7,3
167490,223797,--,0.927,0.303,-0.214,63.4,70,97.7,3
167491,223798,--,0.927,0.303,-0.214,63.4,70,97.7,3
167483,223793,--,0.927,0.303,-0.214,63.4,70,97.7,3
167495,223803,--,0.927,0.303,-0.214,63.4,70,97.7,3
167502,223816,--,0.927,0.303,-0.214,63.4,70,97.7,3
167500,223804,--,0.927,0.303,-0.214,63.4,70,97.7,3
167519,223813,--,0.927,0.303,-0.214,63.4,70,97.7,3
167516,223816,--,0.927,0.303,-0.214,63.4,70,97.7,3
167529,223825,--,0.928,0.303,-0.214,63.4,70,97.7,3
167536,223819,--,0.928,0.302,-0.213,63.4,70,97.7,3
167556,223830,--,0.928,0.302,-0.212,63.4,70,97.7,3
167548,223824,--,0.928,0.302,-0.212,63.4,70,97.7,3
167563,223849,--,0.928,0.303,-0.213,63.4,70,97.7,3
167554,223836,--,0.927,0.302,-0.214,63.4,70,97.7,3
167550,223831,--,0.927,0.302,-0.214,63.4,70,97.7,3
167562,223840,--,0.927,0.302,-0.214,63.4,70,97.7,3
167569,223845,--,0.928,0.302,-0.214,63.4,70,97.7,3
167572,223849,--,0.928,0.302,-0.214,63.4,70,97.7,3
167582,223841,--,0.928,0.302,-0.214,63.4,70,97.7,3
167593,223841,--,0.926,0.302,-0.214,63.4,70,97.7,3
167603,223842,--,0.926,0.302,-0.214,63.4,70,97.7,3
167614,223859,--,0.926,0.302,-0.214,63.4,72,97.7,3
167615,223860,--,0.926,0.303,-0.213,63.4,72,97.7,3
167640,223872,--,0.926,0.303,-0.213,63.4,72,97.7,3
167642,223878,--,0.926,0.303,-0.213,63.4,72,97.7,3
167660,223880,--,0.927,0.303,-0.212,63.4,72,97.7,3
167673,223897,--,0.927,0.303,-0.212,63.4,72,97.7,3
167674,223895,--,0.927,0.303,-0.212,63.4,72,97.7,3
167679,223892,--,0.928,0.302,-0.212,63.4,72,97.7,3
167676,223893,--,0.928,0.302,-0.212,63.4,72,97.7,3
167671,223892,--,0.928,0.302,-0.212,63.4,72,97.7,3
167636,223868,--,0.927,0.302,-0.213,63.4,72,97.7,3
167619,223852,--,0.927,0.302,-0.213,63.4,72,97.7,3
167581,223842,--,0.927,0.302,-0.213,63.4,72,97.7,3
167542,223817,--,0.927,0.303,-0.213,63.4,72,97.7,3
167498,223783,--,0.927,0.303,-0.213,63.4,72,97.7,3
167445,223768,--,0.927,0.303,-0.213,63.4,72,97.7,3
167405,223737,--,0.927,0.303,-0.213,63.4,72,97.7,3
167362,223713,--,0.927,0.303,-0.214,63.4,72,97.7,3
167330,223682,--,0.927,0.303,-0.214,63.4,72,97.7,3
167311,223694,--,0.927,0.303,-0.214,63.4,72,97.7,3
167296,223677,--,0.928,0.303,-0.214,63.4,72,97.7,3
167305,223684,--,0.928,0.303,-0.214,63.4,72,97.7,3
167315,223692,--,0.927,0.303,-0.214,63.4,72,97.7,3
167323,223692,--,0.928,0.303,-0.214,63.4,72,97.7,3
167329,223708,--,0.928,0.303,-0.213,63.4,72,97.7,3
167352,223716,--,0.927,0.302,-0.214,63.4,72,97.7,3
167351,223712,--,0.928,0.302,-0.215,63.4,72,97.7,3
167364,223721,--,0.928,0.302,-0.215,63.4,72,97.7,3
167365,223710,--,0.928,0.302,-0.215,63.4,72,97.7,3
167369,223721,--,0.929,0.302,-0.214,63.4,72,97.7,3
167367,223723,--,0.929,0.302,-0.214,63.4,72,97.7,3
167360,223725,--,0.929,0.302,-0.214,63.4,72,97.7,3
167361,223711,--,0.929,0.302,-0.213,63.4,72,97.7,3
167353,223712,--,0.929,0.302,-0.213,63.4,72,97.7,3
167363,223714,--,0.929,0.302,-0.213,63.4,72,97.7,3
167371,223725,--,0.928,0.302,-0.213,63.4,72,97.7,3
167388,223721,--,0.928,0.302,-0.213,63.4,72,97.7,3
167399,223733,--,0.928,0.302,-0.213,63.4,72,97.7,3
167416,223732,--,0.927,0.302,-0.215,63.4,72,97.7,3
167426,223742,--,0.927,0.302,-0.215,63.4,72,97.7,3
167405,223737,--,0.927,0.302,-0.215,63.4,72,97.7,3
167402,223745,--,0.928,0.302,-0.214,63.4,72,97.7,3
167422,223745,--,0.930,0.302,-0.214,63.4,72,97.7,3
167416,223740,--,0.930,0.302,-0.214,63.4,72,97.7,3
167391,223735,--,0.927,0.303,-0.216,63.4,72,97.7,3
167404,223729,--,0.927,0.303,-0.216,63.4,72,97.7,3
167405,223736,--,0.927,0.303,-0.216,63.4,72,97.7,3
167420,223749,--,0.926,0.303,-0.216,63.4,72,97.7,3
167418,223746,--,0.926,0.303,-0.216,63.4,72,97.7,3
167422,223736,--,0.926,0.303,-0.216,63.4,72,97.7,3
167426,223748,--,0.928,0.302,-0.214,63.4,72,97.7,3
167421,223747,--,0.928,0.302,-0.214,63.4,72,97.7,3
167420,223745,--,0.928,0.302,-0.214,63.4,72,97.7,3
167423,223744,--,0.927,0.303,-0.213,63.4,72,97.7,3
167431,223747,--,0.927,0.303,-0.213,63.4,72,97.7,3
167444,223755,--,0.927,0.303,-0.213,63.4,72,97.7,3
167455,223755,--,0.927,0.303,-0.213,63.4,72,97.7,3
167467,223757,--,0.928,0.303,-0.213,63.4,72,97.7,3
167472,223750,--,0.929,0.303,-0.213,63.4,72,97.7,3
167463,223754,--,0.927,0.302,-0.214,63.4,72,97.7,3
167462,223744,--,0.928,0.303,-0.214,63.4,72,97.7,3
167466,223762,--,0.928,0.303,-0.214,63.4,72,97.7,3
167478,223760,--,0.928,0.302,-0.213,63.4,72,97.7,3
167485,223755,--,0.928,0.302,-0.213,63.4,72,97.7,3
167490,223764,--,0.928,0.302,-0.213,63.4,72,97.7,3
167492,223766,--,0.926,0.302,-0.214,63.4,72,97.7,3
167500,223766,--,0.926,0.302,-0.214,63.4,72,97.7,3
167501,223778,--,0.926,0.302,-0.214,63.4,72,97.7,3
167507,223776,--,0.927,0.302,-0.214,63.4,72,97.7,3
167513,223770,--,0.927,0.302,-0.214,63.4,72,97.7,3
167522,223776,--,0.927,0.302,-0.214,63.4,72,97.7,3
167519,223780,--,0.927,0.302,-0.214,63.4,72,97.7,3
167529,223779,--,0.928,0.302,-0.214,63.4,72,97.7,3
167519,223760,--,0.927,0.302,-0.214,63.4,72,97.7,3
167521,223780,--,0.927,0.302,-0.214,63.4,72,97.7,3
167524,223764,--,0.929,0.303,-0.213,63.4,72,97.7,3
167513,223760,--,0.928,0.303,-0.211,63.4,72,97.7,3
167513,223757,--,0.927,0.302,-0.211,63.4,72,97.7,3
167506,223759,--,0.927,0.302,-0.211,63.4,72,97.7,3
167512,223761,--,0.927,0.302,-0.211,63.4,72,97.7,3
167526,223764,--,0.926,0.303,-0.213,63.4,72,97.7,3
167524,223769,--,0.926,0.303,-0.213,63.4,72,97.7,3
167529,223772,--,0.926,0.303,-0.213,63.4,72,97.7,3
167537,223782,--,0.926,0.303,-0.213,63.4,72,97.7,3
167555,223796,--,0.928,0.302,-0.214,63.4,72,97.7,3
167568,223799,--,0.928,0.302,-0.214,63.4,72,97.7,3
167571,223780,--,0.928,0.302,-0.214,63.4,72,97.7,3
167571,223788,--,0.928,0.302,-0.213,63.4,72,97.7,3
167580,223795,--,0.928,0.302,-0.213,63.4,72,97.7,3
167576,223778,--,0.928,0.302,-0.213,63.4,72,97.7,3
167578,223787,--,0.927,0.302,-0.213,63.4,72,97.7,3
167587,223788,--,0.926,0.302,-0.213,63.4,72,97.7,3
167581,223783,--,0.927,0.302,-0.214,63.4,72,97.7,3
167566,223779,--,0.927,0.301,-0.215,63.4,72,97.7,3
167582,223783,--,0.927,0.301,-0.215,63.4,72,97.7,3
167591,223791,--,0.929,0.301,-0.213,63.4,72,97.7,3
167610,223789,--,0.929,0.301,-0.213,63.4,72,97.7,3
167619,223803,--,0.929,0.301,-0.213,63.4,72,97.7,3
167624,223817,--,0.928,0.301,-0.213,63.4,72,97.7,3
167632,223819,--,0.928,0.301,-0.213,63.4,72,97.7,3
167635,223814,--,0.928,0.301,-0.213,63.3,73,97.7,3
167655,223823,--,0.927,0.302,-0.214,63.3,73,97.7,3
167669,223826,--,0.927,0.302,-0.214,63.3,73,97.7,3
167671,223823,--,0.927,0.302,-0.214,63.3,73,97.7,3
167679,223835,--,0.928,0.302,-0.213,63.3,73,97.7,3
167681,223835,--,0.928,0.302,-0.213,63.3,73,97.7,3
167674,223815,--,0.928,0.302,-0.213,63.3,73,97.7,3
167669,223818,--,0.928,0.302,-0.212,63.3,73,97.7,3
167675,223838,--,0.926,0.302,-0.213,63.3,73,97.7,3
167684,223818,--,0.925,0.302,-0.214,63.3,73,97.7,3
167672,223821,--,0.926,0.302,-0.215,63.3,73,97.7,3
167647,223808,--,0.928,0.302,-0.214,63.3,73,97.7,3
167626,223793,--,0.928,0.302,-0.214,63.3,73,97.7,3
167578,223767,--,0.928,0.302,-0.214,63.3,73,97.7,3
167514,223737,--,0.928,0.302,-0.213,63.3,73,97.7,3
167474,223707,--,0.928,0.302,-0.213,63.3,73,97.7,3
167431,223692,--,0.928,0.302,-0.213,63.3,73,97.7,3
167391,223670,--,0.927,0.301,-0.214,63.3,73,97.7,3
167359,223643,--,0.927,0.301,-0.214,63.3,73,97.7,3
167340,223649,--,0.927,0.301,-0.214,63.3,73,97.7,3
167329,223639,--,0.927,0.301,-0.214,63.3,73,97.7,3
167327,223625,--,0.927,0.301,-0.214,63.3,73,97.7,3
167328,223638,--,0.927,0.301,-0.214,63.3,73,97.7,3
167334,223648,--,0.927,0.301,-0.214,63.3,73,97.7,3
167359,223651,--,0.927,0.301,-0.213,63.3,73,97.7,3
167376,223671,--,0.927,0.300,-0.213,63.3,73,97.7,3
167392,223671,--,0.927,0.301,-0.214,63.3,73,97.7,3
167411,223674,--,0.927,0.302,-0.214,63.3,73,97.7,3
167418,223684,--,0.927,0.302,-0.214,63.3,73,97.7,3
167422,223697,--,0.927,0.301,-0.214,63.3,73,97.7,3
167422,223691,--,0.927,0.301,-0.214,63.3,73,97.7,3
167420,223684,--,0.927,0.301,-0.214,63.3,73,97.7,3
167422,223689,--,0.927,0.301,-0.213,63.3,73,97.7,3
167435,223697,--,0.927,0.301,-0.213,63.3,73,97.7,3
167434,223693,--,0.927,0.301,-0.213,63.3,73,97.8,3
167440,223688,--,0.926,0.301,-0.212,63.3,73,97.8,3
167454,223703,--,0.926,0.301,-0.212,63.3,73,97.8,3
167474,223715,--,0.926,0.301,-0.212,63.3,73,97.8,3
167478,223717,--,0.927,0.302,-0.212,63.3,73,97.8,3
167472,223714,--,0.927,0.302,-0.212,63.3,73,97.8,3
167475,223710,--,0.927,0.302,-0.212,63.3,73,97.8,3
167488,223724,--,0.927,0.302,-0.213,63.3,73,97.8,3
167498,223727,--,0.927,0.301,-0.214,63.3,73,97.8,3
167498,223716,--,0.928,0.302,-0.213,63.3,73,97.8,3
167492,223722,--,0.919,0.305,-0.223,63.3,73,97.8,3
167482,223717,--,0.914,0.305,-0.219,63.3,73,97.8,3
167478,223717,--,0.914,0.305,-0.219,63.3,73,97.8,3
167470,223711,--,0.930,0.300,-0.204,63.3,73,97.8,3
167463,223699,--,0.930,0.300,-0.204,63.3,73,97.8,3
167467,223711,--,0.930,0.300,-0.204,63.3,73,97.8,3
167457,223692,--,0.930,0.300,-0.209,63.3,73,97.8,3
167452,223693,--,0.930,0.300,-0.209,63.3,73,97.8,3
167458,223693,--,0.930,0.300,-0.209,63.3,73,97.8,3
167474,223702,--,0.930,0.300,-0.209,63.3,73,97.8,3
167480,223708,--,0.920,0.302,-0.216,63.3,73,97.8,3
167498,223712,--,0.920,0.302,-0.216,63.3,73,97.8,3
167518,223706,--,0.920,0.302,-0.216,63.3,73,97.8,3
167525,223704,--,0.925,0.302,-0.218,63.3,73,97.8,3
167525,223700,--,0.928,0.301,-0.217,63.3,73,97.8,3
167519,223702,--,0.928,0.301,-0.218,63.3,73,97.8,3
167521,223695,--,0.926,0.302,-0.219,63.3,73,97.8,3
167528,223695,--,0.926,0.302,-0.219,63.3,73,97.8,3
167532,223695,--,0.927,0.302,-0.218,63.3,73,97.8,3
167532,223690,--,0.927,0.302,-0.218,63.3,73,97.8,3
167530,223693,--,0.927,0.302,-0.218,63.3,73,97.8,3
167549,223706,--,0.927,0.302,-0.218,63.3,73,97.8,3
167560,223703,--,0.928,0.302,-0.218,63.3,73,97.8,3
167565,223701,--,0.928,0.302,-0.218,63.3,73,97.8,3
167560,223697,--,0.928,0.302,-0.218,63.3,73,97.8,3
167580,223704,--,0.927,0.302,-0.218,63.3,73,97.8,3
167582,223713,--,0.927,0.302,-0.218,63.3,73,97.8,3
167588,223721,--,0.927,0.302,-0.218,63.3,73,97.8,3
167588,223724,--,0.927,0.303,-0.218,63.3,73,97.8,3
167599,223727,--,0.927,0.303,-0.218,63.3,73,97.8,3
167607,223729,--,0.927,0.303,-0.218,63.3,73,97.8,3
167604,223726,--,0.928,0.302,-0.217,63.3,73,97.8,3
167610,223716,--,0.927,0.302,-0.218,63.3,73,97.8,3
167608,223728,--,0.926,0.302,-0.219,63.3,73,97.8,3
167618,223734,--,0.925,0.302,-0.219,63.3,73,97.8,3
167625,223725,--,0.928,0.302,-0.217,63.3,73,97.8,3
167623,223723,--,0.928,0.302,-0.217,63.3,73,97.8,3
167615,223716,--,0.930,0.302,-0.214,63.3,73,97.8,3
167622,223730,--,0.930,0.302,-0.214,63.3,73,97.8,3
167618,223731,--,0.930,0.302,-0.214,63.3,73,97.8,3
167624,223714,--,0.928,0.302,-0.214,63.3,73,97.8,3
167637,223722,--,0.928,0.302,-0.214,63.3,73,97.8,3
167632,223739,--,0.928,0.302,-0.214,63.3,73,97.8,3
167630,223717,--,0.927,0.302,-0.214,63.3,73,97.8,3
167630,223725,--,0.927,0.302,-0.214,63.3,73,97.8,3
167623,223721,--,0.927,0.302,-0.214,63.3,73,97.8,3
167613,223704,--,0.927,0.302,-0.216,63.3,73,97.8,3
167618,223707,--,0.927,0.302,-0.216,63.3,73,97.8,3
167624,223706,--,0.927,0.302,-0.216,63.3,73,97.8,3
167651,223715,--,0.930,0.302,-0.214,63.3,73,97.8,3
167665,223737,--,0.930,0.301,-0.213,63.3,73,97.8,3
167669,223737,--,0.928,0.302,-0.214,63.3,73,97.8,3
167689,223753,--,0.928,0.302,-0.214,63.3,73,97.8,3
167701,223748,--,0.928,0.302,-0.214,63.3,73,97.8,3
167711,223761,--,0.928,0.302,-0.214,63.3,73,97.8,3
167710,223760,--,0.928,0.301,-0.213,63.3,73,97.8,3
167712,223751,--,0.928,0.301,-0.213,63.2,73,97.8,3
167722,223743,--,0.928,0.301,-0.212,63.2,73,97.8,3
167714,223747,--,0.928,0.301,-0.212,63.2,73,97.8,3
167713,223742,--,0.928,0.301,-0.212,63.2,73,97.8,3
167707,223748,--,0.928,0.302,-0.213,63.2,73,97.8,3
167710,223747,--,0.928,0.302,-0.213,63.2,73,97.8,3
167706,223746,--,0.928,0.302,-0.213,63.2,73,97.8,3
167677,223726,--,0.928,0.302,-0.213,63.2,73,97.8,3
167644,223714,--,0.927,0.302,-0.214,63.2,73,97.8,3
167603,223691,--,0.927,0.302,-0.215,63.2,73,97.8,3
167547,223661,--,0.929,0.301,-0.214,63.2,73,97.8,3
167483,223628,--,0.930,0.300,-0.213,63.2,73,97.8,3
167429,223581,--,0.930,0.301,-0.214,63.2,73,97.8,3
167394,223553,--,0.930,0.301,-0.214,63.2,73,97.8,3
167356,223546,--,0.928,0.301,-0.215,63.2,73,97.8,3
167345,223546,--,0.928,0.301,-0.215,63.2,73,97.8,3
167332,223529,--,0.928,0.301,-0.215,63.2,73,97.8,3
167327,223520,--,0.928,0.301,-0.215,63.2,73,97.8,3
167333,223521,--,0.928,0.301,-0.215,63.2,73,97.8,3
167334,223551,--,0.928,0.301,-0.215,63.2,73,97.8,3
167344,223527,--,0.927,0.302,-0.216,63.2,73,97.8,3
167345,223550,--,0.927,0.302,-0.216,63.2,73,97.8,3
167358,223541,--,0.927,0.302,-0.216,63.2,73,97.8,3
167368,223545,--,0.927,0.302,-0.216,63.2,73,97.8,3
167381,223559,--,0.927,0.301,-0.215,63.2,73,97.8,3
167401,223558,--,0.927,0.301,-0.215,63.2,73,97.8,3
167392,223560,--,0.928,0.301,-0.215,63.2,73,97.8,3
167400,223560,--,0.929,0.301,-0.215,63.2,73,97.8,3
167404,223573,--,0.928,0.300,-0.216,63.2,73,97.8,3
167398,223572,--,0.928,0.300,-0.216,63.2,73,97.8,3
167403,223567,--,0.928,0.301,-0.215,63.2,73,97.8,3
167409,223573,--,0.928,0.301,-0.215,63.2,73,97.8,3
167425,223575,--,0.927,0.301,-0.214,63.2,73,97.8,3
167431,223592,--,0.927,0.301,-0.214,63.2,73,97.8,3
167444,223595,--,0.927,0.301,-0.214,63.2,73,97.8,3
167463,223606,--,0.927,0.301,-0.214,63.2,73,97.8,3
167472,223614,--,0.927,0.301,-0.214,63.2,73,97.8,3
167488,223614,--,0.927,0.301,-0.214,63.2,73,97.8,3
167476,223619,--,0.927,0.301,-0.214,63.2,73,97.8,3
167471,223611,--,0.927,0.301,-0.215,63.2,73,97.8,3
167473,223606,--,0.927,0.301,-0.215,63.2,73,97.8,3
167470,223613,--,0.927,0.301,-0.215,63.2,73,97.8,3
167470,223588,--,0.927,0.301,-0.215,63.2,73,97.8,3
167470,223592,--,0.929,0.301,-0.214,63.2,73,97.8,3
167465,223595,--,0.929,0.301,-0.214,63.2,73,97.8,3
167473,223598,--,0.928,0.301,-0.215,63.2,73,97.8,3
167474,223602,--,0.929,0.301,-0.214,63.2,73,97.8,3
167483,223606,--,0.930,0.300,-0.214,63.2,73,97.8,3
167478,223609,--,0.930,0.300,-0.214,63.2,73,97.8,3
167487,223614,--,0.930,0.300,-0.214,63.2,73,97.8,3
167496,223620,--,0.930,0.300,-0.214,63.2,73,97.8,3
167504,223622,--,0.928,0.301,-0.215,63.2,73,97.8,3
167511,223628,--,0.928,0.301,-0.215,63.2,73,97.8,3
167516,223616,--,0.928,0.301,-0.215,63.2,73,97.8,3
167511,223624,--,0.927,0.301,-0.215,63.2,73,97.8,3
167511,223615,--,0.927,0.301,-0.215,63.2,73,97.8,3
167529,223620,--,0.927,0.301,-0.215,63.2,73,97.8,3
167521,223619,--,0.928,0.301,-0.214,63.2,73,97.8,3
167541,223622,--,0.928,0.301,-0.214,63.2,73,97.8,3
167539,223636,--,0.928,0.301,-0.214,63.2,73,97.8,3
167553,223642,--,0.930,0.301,-0.213,63.2,73,97.8,3
167576,223659,--,0.930,0.301,-0.212,63.2,73,97.8,3
167572,223642,--,0.928,0.301,-0.213,63.2,73,97.8,3
167595,223649,--,0.927,0.301,-0.214,63.2,73,97.8,3
167589,223648,--,0.929,0.301,-0.213,63.2,73,97.8,3
167589,223651,--,0.929,0.301,-0.213,63.2,73,97.8,3
167589,223647,--,0.929,0.300,-0.213,63.2,73,97.8,3
167581,223647,--,0.929,0.300,-0.213,63.2,73,97.8,3
167603,223642,--,0.929,0.300,-0.213,63.2,73,97.8,3
167611,223648,--,0.927,0.300,-0.215,63.2,73,97.8,3
167615,223664,--,0.927,0.300,-0.215,63.2,73,97.8,3
167628,223660,--,0.927,0.300,-0.215,63.2,73,97.8,3
167634,223659,--,0.927,0.300,-0.215,63.2,73,97.8,3
167640,223665,--,0.927,0.301,-0.215,63.2,73,97.8,3
167635,223679,--,0.927,0.301,-0.215,63.2,73,97.8,3
167642,223669,--,0.927,0.301,-0.215,63.2,73,97.8,3
167653,223669,--,0.926,0.302,-0.216,63.2,73,97.8,3
167667,223674,--,0.927,0.302,-0.216,63.2,73,97.8,3
167667,223684,--,0.930,0.301,-0.214,63.2,73,97.8,3
167671,223697,--,0.930,0.301,-0.215,63.2,73,97.8,3
167679,223687,--,0.927,0.302,-0.215,63.2,73,97.8,3
167690,223693,--,0.925,0.302,-0.215,63.2,73,97.8,3
167692,223699,--,0.925,0.302,-0.215,63.2,73,97.8,3
167695,223692,--,0.925,0.302,-0.215,63.2,73,97.8,3
167700,223700,--,0.925,0.302,-0.215,63.2,73,97.8,3
167713,223703,--,0.925,0.302,-0.215,63.2,73,97.8,3
167712,223703,--,0.925,0.302,-0.215,63.2,73,97.8,3
167721,223706,--,0.925,0.302,-0.215,63.2,73,97.8,3
167734,223715,--,0.928,0.301,-0.215,63.2,73,97.8,3
167742,223719,--,0.928,0.301,-0.215,63.2,73,97.8,3
167747,223714,--,0.928,0.301,-0.215,63.2,73,97.8,3
167747,223703,--,0.930,0.300,-0.215,63.2,73,97.8,3
167765,223717,--,0.930,0.300,-0.215,63.2,73,97.8,3
167763,223724,--,0.930,0.300,-0.215,63.2,73,97.8,3
167758,223717,--,0.929,0.300,-0.215,63.2,73,97.8,3
167758,223717,--,0.927,0.301,-0.216,63.2,73,97.8,3
167759,223717,--,0.927,0.300,-0.216,63.2,73,97.8,3
167766,223720,--,0.927,0.300,-0.216,63.2,73,97.8,3
167783,223730,--,0.927,0.301,-0.215,63.2,73,97.8,3
167796,223726,--,0.928,0.301,-0.214,63.2,73,97.8,3
167799,223732,--,0.928,0.301,-0.214,63.1,74,97.8,3
167806,223735,--,0.927,0.301,-0.214,63.1,74,97.8,3
167814,223741,--,0.927,0.301,-0.214,63.1,74,97.8,3
167808,223738,--,0.927,0.301,-0.214,63.1,74,97.8,3
167794,223736,--,0.927,0.301,-0.214,63.1,74,97.8,3
167758,223714,--,0.928,0.300,-0.216,63.1,74,97.8,3
167694,223678,--,0.928,0.300,-0.216,63.1,74,97.8,3
167645,223654,--,0.928,0.300,-0.216,63.1,74,97.8,3
167585,223605,--,0.928,0.300,-0.216,63.1,74,97.8,3
167529,223581,--,0.928,0.300,-0.216,63.1,74,97.8,3
167483,223560,--,0.928,0.300,-0.216,63.1,74,97.8,3
167449,223536,--,0.928,0.300,-0.217,63.1,74,97.8,3
167412,223514,--,0.928,0.300,-0.217,63.1,74,97.8,3
167396,223521,--,0.927,0.301,-0.217,63.1,74,97.8,3
167390,223509,--,0.927,0.300,-0.216,63.1,74,97.8,3
167377,223502,--,0.927,0.300,-0.216,63.1,74,97.8,3
167383,223503,--,0.927,0.300,-0.216,63.1,74,97.8,3
167394,223507,--,0.927,0.300,-0.216,63.1,74,97.8,3
167389,223499,--,0.927,0.300,-0.215,63.1,74,97.8,3
167405,223518,--,0.927,0.300,-0.215,63.1,74,97.8,3
167409,223513,--,0.927,0.300,-0.215,63.1,74,97.8,3
167412,223509,--,0.928,0.300,-0.215,63.1,74,97.8,3
167417,223510,--,0.928,0.300,-0.215,63.1,74,97.8,3
167415,223510,--,0.928,0.300,-0.215,63.1,74,97.8,3
167418,223521,--,0.927,0.300,-0.215,63.1,74,97.8,3
167434,223521,--,0.927,0.300,-0.215,63.1,74,97.8,3
167438,223520,--,0.927,0.300,-0.215,63.1,74,97.8,3
167435,223519,--,0.927,0.301,-0.214,63.1,74,97.8,3
167443,223519,--,0.930,0.300,-0.214,63.1,74,98.0,3
167440,223524,--,0.928,0.300,-0.215,63.1,74,98.0,3
167442,223536,--,0.927,0.300,-0.215,63.1,74,98.0,3
167461,223530,--,0.927,0.301,-0.215,63.1,74,98.0,3
167454,223536,--,0.927,0.301,-0.214,63.1,74,98.0,3
167468,223532,--,0.927,0.301,-0.214,63.1,74,98.0,3
167462,223541,--,0.927,0.301,-0.214,63.1,74,98.0,3
167477,223548,--,0.928,0.300,-0.215,63.1,74,98.0,3
167465,223540,--,0.928,0.300,-0.215,63.1,74,98.0,3
167476,223540,--,0.928,0.300,-0.215,63.1,74,98.0,3
167487,223549,--,0.928,0.300,-0.215,63.1,74,98.0,3
167480,223547,--,0.928,0.299,-0.216,63.1,74,98.0,3
167491,223547,--,0.928,0.299,-0.216,63.1,74,98.0,3
167491,223545,--,0.928,0.299,-0.216,63.1,74,98.0,3
167480,223552,--,0.928,0.299,-0.216,63.1,74,98.0,3
167481,223543,--,0.928,0.299,-0.216,63.1,74,98.0,3
167492,223550,--,0.928,0.299,-0.216,63.1,74,98.0,3
167480,223540,--,0.928,0.300,-0.215,63.1,74,98.0,3
167479,223530,--,0.927,0.301,-0.216,63.1,74,98.0,3
167483,223538,--,0.927,0.300,-0.216,63.1,74,98.0,3
167503,223539,--,0.927,0.299,-0.215,63.1,74,98.0,3
167511,223542,--,0.927,0.299,-0.215,63.1,74,98.0,3
167528,223549,--,0.927,0.299,-0.215,63.1,74,98.0,3
167532,223563,--,0.926,0.299,-0.215,63.1,74,98.0,3
167538,223571,--,0.926,0.299,-0.215,63.1,74,98.0,3
167538,223572,--,0.926,0.299,-0.215,63.1,74,98.0,3
167540,223555,--,0.927,0.299,-0.215,63.1,74,98.0,3
167546,223550,--,0.927,0.299,-0.215,63.1,74,98.0,3
167549,223556,--,0.927,0.299,-0.215,63.1,74,98.0,3
167553,223547,--,0.927,0.299,-0.215,63.1,74,98.0,3
167566,223556,--,0.927,0.300,-0.214,63.1,74,98.0,3
167570,223567,--,0.927,0.300,-0.214,63.1,74,98.0,3
167582,223568,--,0.927,0.300,-0.214,63.1,74,98.0,3
167580,223570,--,0.927,0.300,-0.214,63.1,74,98.0,3
167595,223575,--,0.928,0.300,-0.215,63.1,74,98.0,3
167596,223578,--,0.930,0.299,-0.215,63.1,74,98.0,3
167606,223572,--,0.929,0.299,-0.214,63.1,74,98.0,3
167611,223580,--,0.929,0.299,-0.213,63.1,74,98.0,3
167618,223584,--,0.930,0.299,-0.213,63.1,74,98.0,3
167606,223575,--,0.930,0.299,-0.213,63.1,74,98.0,3
167616,223573,--,0.930,0.299,-0.213,63.1,74,98.0,3
167616,223570,--,0.930,0.299,-0.213,63.1,74,98.0,3
167614,223572,--,0.928,0.299,-0.212,63.1,74,98.0,3
167609,223574,--,0.928,0.299,-0.212,63.1,74,98.0,3
167618,223572,--,0.928,0.299,-0.212,63.1,74,98.0,3
167610,223563,--,0.927,0.300,-0.213,63.1,74,98.0,3
167613,223570,--,0.927,0.300,-0.213,63.1,74,98.0,3
167612,223568,--,0.927,0.300,-0.213,63.1,74,98.0,3
167629,223558,--,0.926,0.300,-0.214,63.1,74,98.0,3
167636,223580,--,0.926,0.300,-0.214,63.1,74,98.0,3
167642,223582,--,0.926,0.300,-0.214,63.1,74,98.0,3
167660,223585,--,0.929,0.300,-0.212,63.1,74,98.0,3
167667,223587,--,0.932,0.299,-0.210,63.1,74,98.0,3
167684,223596,--,0.929,0.299,-0.211,63.1,74,98.0,3
167687,223598,--,0.928,0.299,-0.212,63.1,74,98.0,3
167703,223603,--,0.927,0.300,-0.211,63.1,74,98.0,3
167698,223601,--,0.927,0.300,-0.211,63.1,74,98.0,3
167689,223597,--,0.927,0.300,-0.211,63.1,74,98.0,3
167681,223590,--,0.927,0.300,-0.211,63.1,74,98.0,3
167696,223599,--,0.927,0.300,-0.211,63.1,74,98.0,3
167687,223589,--,0.928,0.300,-0.212,63.1,74,98.0,3
167708,223587,--,0.928,0.300,-0.212,63.1,74,98.0,3
167710,223604,--,0.928,0.300,-0.212,63.1,74,98.0,3
167730,223612,--,0.930,0.299,-0.212,63.1,74,98.0,3
167722,223614,--,0.930,0.299,-0.212,63.1,74,98.0,3
167749,223608,--,0.930,0.299,-0.212,63.1,74,98.0,3
167754,223615,--,0.931,0.299,-0.212,63.1,74,98.0,3
167754,223609,--,0.931,0.299,-0.212,63.1,74,98.0,3
167757,223621,--,0.930,0.299,-0.212,63.1,74,98.0,3
167761,223616,--,0.929,0.299,-0.211,63.1,74,98.0,3
167763,223616,--,0.928,0.299,-0.210,63.1,74,98.0,3
167761,223617,--,0.928,0.299,-0.210,63.1,74,98.0,3
167764,223608,--,0.929,0.299,-0.210,63.0,75,98.0,3
167745,223589,--,0.929,0.299,-0.210,63.0,75,98.0,3
167725,223586,--,0.928,0.299,-0.211,63.0,75,98.0,3
167699,223583,--,0.928,0.299,-0.211,63.0,75,98.0,3
167666,223563,--,0.928,0.299,-0.211,63.0,75,98.0,3
167611,223538,--,0.928,0.299,-0.212,63.0,75,98.0,3
167561,223513,--,0.928,0.299,-0.212,63.0,75,98.0,3
167497,223493,--,0.928,0.299,-0.212,63.0,75,98.0,3
167445,223447,--,0.929,0.299,-0.213,63.0,75,98.0,3
167400,223421,--,0.929,0.299,-0.213,63.0,75,98.0,3
167364,223404,--,0.929,0.299,-0.213,63.0,75,98.0,3
167348,223392,--,0.929,0.299,-0.213,63.0,75,98.0,3
167335,223378,--,0.928,0.299,-0.214,63.0,75,98.0,3
167332,223386,--,0.928,0.298,-0.213,63.0,75,98.0,3
167337,223386,--,0.928,0.298,-0.211,63.0,75,98.0,3
167353,223407,--,0.928,0.298,-0.211,63.0,75,98.0,3
167360,223406,--,0.928,0.299,-0.213,63.0,75,98.0,3
167370,223421,--,0.928,0.299,-0.213,63.0,75,98.0,3
167390,223428,--,0.927,0.298,-0.214,63.0,75,98.0,3
167396,223429,--,0.927,0.298,-0.214,63.0,75,98.0,3
167402,223437,--,0.927,0.298,-0.214,63.0,75,98.0,3
167401,223424,--,0.927,0.298,-0.215,63.0,75,98.0,3
167399,223423,--,0.927,0.298,-0.215,63.0,75,98.0,3
167402,223432,--,0.927,0.298,-0.215,63.0,75,98.0,3
167397,223410,--,0.927,0.298,-0.215,63.0,75,98.0,3
167401,223416,--,0.928,0.298,-0.214,63.0,75,98.0,3
167395,223416,--,0.928,0.298,-0.214,63.0,75,98.1,3
167401,223423,--,0.928,0.298,-0.214,63.0,75,98.1,3
167420,223433,--,0.929,0.299,-0.213,63.0,75,98.1,3
167435,223440,--,0.929,0.299,-0.213,63.0,75,98.1,3
167442,223452,--,0.928,0.299,-0.214,63.0,75,98.1,3
167450,223461,--,0.928,0.300,-0.215,63.0,75,98.1,3
167457,223470,--,0.928,0.299,-0.214,63.0,75,98.1,3
167463,223471,--,0.929,0.298,-0.214,63.0,75,98.1,3
167444,223453,--,0.929,0.299,-0.214,63.0,75,98.1,3
167454,223463,--,0.929,0.299,-0.214,63.0,75,98.1,3
167456,223455,--,0.927,0.300,-0.215,63.0,75,98.1,3
167458,223458,--,0.927,0.300,-0.215,63.0,75,98.1,3
167454,223462,--,0.927,0.300,-0.215,63.0,75,98.1,3
167446,223458,--,0.927,0.300,-0.215,63.0,75,98.1,3
167437,223450,--,0.928,0.300,-0.215,63.0,75,98.1,3
167442,223456,--,0.928,0.300,-0.215,63.0,75,98.1,3
167437,223455,--,0.928,0.300,-0.215,63.0,75,98.1,3
167439,223453,--,0.929,0.298,-0.214,63.0,75,98.1,3
167457,223455,--,0.929,0.298,-0.214,63.0,75,98.1,3
167459,223460,--,0.929,0.298,-0.214,63.0,75,98.1,3
167464,223466,--,0.928,0.299,-0.215,63.0,75,98.1,3
167464,223458,--,0.927,0.300,-0.217,63.0,75,98.1,3
167476,223471,--,0.928,0.300,-0.216,63.0,75,98.1,3
167485,223468,--,0.928,0.301,-0.215,63.0,75,98.1,3
167491,223477,--,0.927,0.301,-0.215,63.0,75,98.1,3
167503,223483,--,0.928,0.301,-0.214,63.0,75,98.1,3
167518,223482,--,0.928,0.301,-0.214,63.0,75,98.1,3
167537,223507,--,0.928,0.301,-0.214,63.0,75,98.1,3
167534,223489,--,0.928,0.301,-0.214,63.0,75,98.1,3
167545,223503,--,0.929,0.300,-0.212,63.0,75,98.1,3
167551,223514,--,0.929,0.300,-0.212,63.0,75,98.1,3
167545,223504,--,0.929,0.300,-0.212,63.0,75,98.1,3
167548,223497,--,0.928,0.300,-0.213,63.0,75,98.1,3
167545,223500,--,0.928,0.300,-0.213,63.0,75,98.1,3
167551,223498,--,0.928,0.300,-0.213,63.0,75,98.1,3
167553,223495,--,0.927,0.300,-0.215,63.0,75,98.1,3
167564,223505,--,0.927,0.300,-0.215,63.0,75,98.1,3
167578,223516,--,0.927,0.300,-0.215,63.0,75,98.1,3
167586,223520,--,0.927,0.300,-0.214,63.0,75,98.1,3
167585,223518,--,0.927,0.299,-0.214,63.0,75,98.1,3
167601,223518,--,0.927,0.299,-0.215,63.0,75,98.1,3
167598,223513,--,0.928,0.300,-0.215,63.0,75,98.1,3
167603,223520,--,0.927,0.300,-0.214,63.0,75,98.1,3
167599,223524,--,0.927,0.300,-0.214,63.0,75,98.1,3
167605,223516,--,0.928,0.300,-0.213,63.0,75,98.1,3
167587,223517,--,0.928,0.300,-0.213,63.0,75,98.1,3
167590,223512,--,0.928,0.300,-0.213,63.0,75,98.1,3
167594,223521,--,0.928,0.301,-0.214,63.0,75,98.1,3
167613,223520,--,0.928,0.301,-0.214,63.0,75,98.1,3
167618,223518,--,0.928,0.301,-0.214,63.0,75,98.1,3
167624,223539,--,0.928,0.301,-0.214,63.0,75,98.1,3
167635,223542,--,0.928,0.301,-0.214,63.0,75,98.1,3
167647,223548,--,0.928,0.301,-0.214,63.0,75,98.1,3
167652,223547,--,0.928,0.301,-0.214,63.0,75,98.1,3
167661,223550,--,0.929,0.300,-0.215,63.0,75,98.1,3
167655,223547,--,0.928,0.300,-0.215,63.0,75,98.1,3
167662,223551,--,0.928,0.300,-0.216,63.0,75,98.1,3
167675,223555,--,0.927,0.300,-0.215,63.0,75,98.1,3
167681,223550,--,0.928,0.300,-0.214,63.0,75,98.1,3
167677,223569,--,0.929,0.300,-0.213,63.0,75,98.1,3
167689,223558,--,0.929,0.300,-0.213,63.0,75,98.1,3
167698,223561,--,0.929,0.300,-0.213,63.0,75,98.1,3
167723,223568,--,0.929,0.300,-0.213,63.0,75,98.1,3
167726,223566,--,0.929,0.300,-0.213,63.0,75,98.1,3
167726,223575,--,0.929,0.300,-0.213,63.0,75,98.1,3
167730,223582,--,0.929,0.300,-0.213,63.0,75,98.1,3
167746,223585,--,0.927,0.300,-0.214,63.0,75,98.1,3
167739,223585,--,0.927,0.300,-0.214,63.0,75,98.1,3
167753,223590,--,0.927,0.300,-0.214,63.0,75,98.1,3
167747,223574,--,0.926,0.300,-0.215,63.0,75,98.1,3
167757,223582,--,0.926,0.300,-0.215,63.0,75,98.1,3
167763,223595,--,0.926,0.300,-0.215,63.0,75,98.1,3
167779,223600,--,0.927,0.300,-0.216,63.0,75,98.1,3
167775,223608,--,0.929,0.299,-0.215,63.0,75,98.1,3
167787,223607,--,0.930,0.299,-0.213,62.9,76,98.1,3
167787,223600,--,0.928,0.299,-0.213,62.9,76,98.1,3
167772,223606,--,0.927,0.299,-0.214,62.9,76,98.1,3
167740,223569,--,0.930,0.298,-0.214,62.9,76,98.1,3
167703,223557,--,0.930,0.298,-0.214,62.9,76,98.1,3
167651,223531,--,0.931,0.298,-0.214,62.9,76,98.1,3
167589,223502,--,0.931,0.298,-0.214,62.9,76,98.1,3
167540,223470,--,0.931,0.298,-0.214,62.9,76,98.1,3
167489,223439,--,0.928,0.299,-0.216,62.9,76,98.1,3
167431,223405,--,0.928,0.299,-0.216,62.9,76,98.1,3
167410,223391,--,0.928,0.299,-0.216,62.9,76,98.1,3
167379,223385,--,0.928,0.299,-0.216,62.9,76,98.1,3
167364,223378,--,0.927,0.300,-0.217,62.9,76,98.1,3
167361,223366,--,0.927,0.300,-0.217,62.9,76,98.1,3
167340,223357,--,0.927,0.300,-0.217,62.9,76,98.1,3
167342,223358,--,0.929,0.300,-0.215,62.9,76,98.1,3
167361,223374,--,0.929,0.299,-0.214,62.9,76,98.1,3
167380,223379,--,0.929,0.299,-0.215,62.9,76,98.1,3
167385,223378,--,0.930,0.299,-0.215,62.9,76,98.1,3
167402,223386,--,0.929,0.299,-0.215,62.9,76,98.1,3
167416,223405,--,0.929,0.299,-0.215,62.9,76,98.1,3
167410,223401,--,0.929,0.299,-0.215,62.9,76,98.1,3
167413,223396,--,0.928,0.300,-0.214,62.9,76,98.1,3
167416,223404,--,0.928,0.300,-0.214,62.9,76,98.1,3
167420,223383,--,0.928,0.300,-0.214,62.9,76,98.1,3
167417,223398,--,0.928,0.300,-0.213,62.9,76,98.1,3
167399,223397,--,0.928,0.300,-0.213,62.9,76,98.1,3
167422,223389,--,0.928,0.300,-0.213,62.9,76,98.2,3
167422,223408,--,0.930,0.300,-0.212,62.9,76,98.2,3
167431,223403,--,0.930,0.300,-0.212,62.9,76,98.2,3
167435,223399,--,0.930,0.300,-0.212,62.9,76,98.2,3
167434,223417,--,0.930,0.300,-0.213,62.9,76,98.2,3
167450,223407,--,0.927,0.299,-0.217,62.9,76,98.2,3
167433,223407,--,0.927,0.299,-0.216,62.9,76,98.2,3
167430,223405,--,0.928,0.299,-0.215,62.9,76,98.2,3
167432,223395,--,0.927,0.300,-0.215,62.9,76,98.2,3
167435,223398,--,0.927,0.300,-0.215,62.9,76,98.2,3
167424,223395,--,0.928,0.300,-0.214,62.9,76,98.2,3
167424,223395,--,0.928,0.300,-0.214,62.9,76,98.2,3
