Auto Gain Control OFF,IR PA (mA)=10,Red PA (mA)=10,Sample Rate (Hz)=100,Pulse Width (usec)=400,FIFO Almost Full=17,FIFO Rolls on Full=Checked,Sample Averaging=2
IR Count, Red Count, Green Count, X Axis Acceleration, Y Axis Acceleration, Z Axis Acceleration, Heart Rate, HR Confidence, SPO2, Algorithm Status
142675,46659,--,0.000,0.000,0.000,0.0,0,0.0,1
142649,46642,--,0.000,0.000,0.000,0.0,0,0.0,1
164075,65775,--,0.000,0.000,0.000,0.0,0,0.0,1
196859,98561,--,0.000,0.000,0.000,0.0,0,0.0,1
222996,131295,--,0.000,0.000,0.000,0.0,0,0.0,1
224577,164091,--,0.000,0.000,0.000,0.0,0,0.0,1
224544,196840,--,0.000,0.000,0.000,0.0,0,0.0,1
224553,227832,--,0.000,0.000,0.000,0.0,0,0.0,1
224566,233904,--,0.000,0.000,0.000,0.0,0,0.0,1
224570,233896,--,0.000,0.000,0.000,0.0,0,0.0,1
224589,233886,--,0.000,0.000,0.000,0.0,0,0.0,1
224615,233876,--,0.000,0.000,0.000,0.0,0,0.0,1
224643,233892,--,0.000,0.000,0.000,0.0,0,0.0,1
224597,233841,--,0.000,0.000,0.000,0.0,0,0.0,1
224481,233761,--,0.000,0.000,0.000,0.0,0,0.0,1
224339,233679,--,0.000,0.000,0.000,0.0,0,0.0,1
224244,233620,--,0.000,0.000,0.000,0.0,0,0.0,1
224199,233594,--,0.000,0.000,0.000,0.0,0,0.0,1
224183,233594,--,0.000,0.000,0.000,0.0,0,0.0,1
235270,233592,--,0.000,0.000,0.000,0.0,0,0.0,1
235092,233604,--,0.000,0.000,0.000,0.0,0,0.0,1
235119,233613,--,0.000,0.000,0.000,0.0,0,0.0,1
235158,233620,--,0.000,0.000,0.000,0.0,0,0.0,1
235135,233605,--,0.000,0.000,0.000,0.0,0,0.0,1
235117,233571,--,0.000,0.000,0.000,0.0,0,0.0,1
235124,233564,--,0.000,0.000,0.000,0.0,0,0.0,1
235170,233560,--,0.000,0.000,0.000,0.0,0,0.0,1
235207,233575,--,0.000,0.000,0.000,0.0,0,0.0,1
235239,233573,--,0.000,0.000,0.000,0.0,0,0.0,1
235253,233561,--,0.000,0.000,0.000,0.0,0,0.0,1
235232,233540,--,0.000,0.000,0.000,0.0,0,0.0,1
235205,233497,--,0.000,0.000,0.000,0.0,0,0.0,1
235182,233491,--,0.000,0.000,0.000,0.0,0,0.0,1
235198,233494,--,0.000,0.000,0.000,0.0,0,0.0,1
235218,233496,--,0.000,0.000,0.000,0.0,0,0.0,1
235211,233489,--,0.000,0.000,0.000,0.0,0,0.0,1
235215,233474,--,0.000,0.000,0.000,0.0,0,0.0,1
235204,233464,--,0.000,0.000,0.000,0.0,0,0.0,1
235232,233476,--,0.000,0.000,0.000,0.0,0,0.0,1
235287,233517,--,0.000,0.000,0.000,0.0,0,0.0,1
235315,233519,--,0.000,0.000,0.000,0.0,0,0.0,1
235353,233533,--,0.000,0.000,0.000,0.0,0,0.0,1
235419,233567,--,0.000,0.000,0.000,0.0,0,0.0,1
235577,233683,--,0.000,0.000,0.000,0.0,0,0.0,1
235740,233822,--,0.000,0.000,0.000,0.0,0,0.0,1
235850,233917,--,0.000,0.000,0.000,0.0,0,0.0,1
235847,233902,--,0.000,0.000,0.000,0.0,0,0.0,1
235750,233796,--,0.000,0.000,0.000,0.0,0,0.0,1
235651,233689,--,0.000,0.000,0.000,0.0,0,0.0,1
235579,233590,--,0.000,0.000,0.000,0.0,0,0.0,1
235529,233510,--,0.000,0.000,0.000,0.0,0,0.0,1
235489,233438,--,0.000,0.000,0.000,0.0,0,0.0,1
235423,233365,--,0.000,0.000,0.000,0.0,0,0.0,1
235302,233285,--,0.000,0.000,0.000,0.0,0,0.0,1
235178,233242,--,0.000,0.000,0.000,0.0,0,0.0,1
235097,233231,--,0.000,0.000,0.000,0.0,0,0.0,1
235075,233248,--,0.000,0.000,0.000,0.0,0,0.0,1
235081,233269,--,0.000,0.000,0.000,0.0,0,0.0,1
235147,233313,--,0.000,0.000,0.000,0.0,0,0.0,1
235241,233386,--,0.000,0.000,0.000,0.0,0,0.0,1
235324,233455,--,0.000,0.000,0.000,0.0,0,0.0,1
235391,233509,--,0.000,0.000,0.000,0.0,0,0.0,1
235407,233527,--,0.000,0.000,0.000,0.0,0,0.0,1
235400,233521,--,0.000,0.000,0.000,0.0,0,0.0,1
235416,233509,--,0.000,0.000,0.000,0.0,0,0.0,1
235395,233483,--,0.000,0.000,0.000,0.0,0,0.0,1
235365,233438,--,0.000,0.000,0.000,0.0,0,0.0,1
235354,233402,--,0.000,0.000,0.000,0.0,0,0.0,1
235341,233374,--,0.000,0.000,0.000,0.0,0,0.0,1
235317,233350,--,0.000,0.000,0.000,0.0,0,0.0,1
235306,233329,--,0.000,0.000,0.000,0.0,0,0.0,1
235315,233347,--,0.000,0.000,0.000,0.0,0,0.0,1
235314,233352,--,0.000,0.000,0.000,0.0,0,0.0,1
235351,233364,--,0.000,0.000,0.000,0.0,0,0.0,1
235378,233378,--,0.000,0.000,0.000,0.0,0,0.0,1
235416,233391,--,0.000,0.000,0.000,0.0,0,0.0,1
235470,233414,--,0.000,0.000,0.000,0.0,0,0.0,1
235505,233432,--,0.000,0.000,0.000,0.0,0,0.0,1
235533,233444,--,0.000,0.000,0.000,0.0,0,0.0,1
235571,233462,--,0.000,0.000,0.000,0.0,0,0.0,1
235592,233473,--,0.000,0.000,0.000,0.0,0,0.0,1
235598,233480,--,0.000,0.000,0.000,0.0,0,0.0,1
235597,233454,--,0.000,0.000,0.000,0.0,0,0.0,1
235577,233420,--,0.000,0.000,0.000,0.0,0,0.0,1
235569,233399,--,0.000,0.000,0.000,0.0,0,0.0,1
235559,233382,--,0.000,0.000,0.000,0.0,0,0.0,1
235552,233351,--,0.000,0.000,0.000,0.0,0,0.0,1
235553,233340,--,0.000,0.000,0.000,0.0,0,0.0,1
235539,233336,--,0.000,0.000,0.000,0.0,0,0.0,1
235503,233305,--,0.000,0.000,0.000,0.0,0,0.0,1
235535,233317,--,0.000,0.000,0.000,0.0,0,0.0,1
235549,233311,--,0.000,0.000,0.000,0.0,0,0.0,1
235541,233312,--,0.000,0.000,0.000,0.0,0,0.0,1
235487,233289,--,0.000,0.000,0.000,0.0,0,0.0,1
235391,233258,--,0.000,0.000,0.000,0.0,0,0.0,1
235334,233258,--,0.000,0.000,0.000,0.0,0,0.0,1
235338,233305,--,0.000,0.000,0.000,0.0,0,0.0,1
235403,233366,--,0.000,0.000,0.000,0.0,0,0.0,1
235510,233475,--,0.000,0.000,0.000,0.0,0,0.0,1
235599,233532,--,0.000,0.000,0.000,0.0,0,0.0,1
235631,233560,--,0.000,0.000,0.000,0.0,0,0.0,1
235627,233558,--,0.000,0.000,0.000,0.0,0,0.0,1
235623,233542,--,0.000,0.000,0.000,0.0,0,0.0,1
235631,233523,--,0.000,0.000,0.000,0.0,0,0.0,1
235620,233508,--,0.000,0.000,0.000,0.0,0,0.0,1
235628,233493,--,0.000,0.000,0.000,0.0,0,0.0,1
235629,233484,--,0.000,0.000,0.000,0.0,0,0.0,1
235614,233458,--,0.000,0.000,0.000,0.0,0,0.0,1
235588,233433,--,0.000,0.000,0.000,0.0,0,0.0,1
235551,233408,--,0.000,0.000,0.000,0.0,0,0.0,1
235520,233388,--,0.000,0.000,0.000,0.0,0,0.0,1
235493,233361,--,0.000,0.000,0.000,0.0,0,0.0,1
235479,233343,--,0.000,0.000,0.000,0.0,0,0.0,1
235493,233348,--,0.000,0.000,0.000,0.0,0,0.0,1
235491,233325,--,0.000,0.000,0.000,0.0,0,0.0,1
235497,233331,--,0.000,0.000,0.000,0.0,0,0.0,1
235505,233331,--,0.000,0.000,0.000,0.0,0,0.0,1
235528,233340,--,0.000,0.000,0.000,0.0,0,0.0,1
235541,233336,--,0.000,0.000,0.000,0.0,0,0.0,1
235551,233339,--,0.000,0.000,0.000,0.0,0,0.0,1
235568,233352,--,0.000,0.000,0.000,0.0,0,0.0,1
235591,233360,--,0.000,0.000,0.000,0.0,0,0.0,1
235599,233364,--,0.000,0.000,0.000,0.0,0,0.0,1
235596,233353,--,0.000,0.000,0.000,0.0,0,0.0,1
235595,233344,--,0.000,0.000,0.000,0.0,0,0.0,1
235583,233322,--,0.000,0.000,0.000,0.0,0,0.0,1
235605,233319,--,0.000,0.000,0.000,0.0,0,0.0,1
235621,233322,--,0.000,0.000,0.000,0.0,0,0.0,1
235613,233295,--,0.000,0.000,0.000,0.0,0,0.0,1
235608,233284,--,0.000,0.000,0.000,0.0,0,0.0,1
235554,233254,--,0.000,0.000,0.000,0.0,0,0.0,1
235476,233205,--,0.000,0.000,0.000,0.0,0,0.0,1
235373,233177,--,0.000,0.000,0.000,0.0,0,0.0,1
235304,233145,--,0.000,0.000,0.000,0.0,0,0.0,1
235281,233147,--,0.000,0.000,0.000,0.0,0,0.0,1
235316,233187,--,0.000,0.000,0.000,0.0,0,0.0,1
235387,233226,--,0.000,0.000,0.000,0.0,0,0.0,1
235463,233272,--,0.000,0.000,0.000,0.0,0,0.0,1
235495,233279,--,0.000,0.000,0.000,0.0,0,0.0,1
235504,233288,--,0.000,0.000,0.000,0.0,0,0.0,1
235512,233286,--,0.000,0.000,0.000,0.0,0,0.0,1
235510,233278,--,0.000,0.000,0.000,0.0,0,0.0,1
235519,233273,--,0.000,0.000,0.000,0.0,0,0.0,1
235542,233281,--,0.000,0.000,0.000,0.0,0,0.0,1
235551,233290,--,0.000,0.000,0.000,0.0,0,0.0,1
235557,233297,--,0.000,0.000,0.000,0.0,0,0.0,1
235562,233296,--,0.000,0.000,0.000,0.0,0,0.0,1
235549,233279,--,0.000,0.000,0.000,0.0,0,0.0,1
235539,233273,--,0.000,0.000,0.000,0.0,0,0.0,1
235519,233251,--,0.000,0.000,0.000,0.0,0,0.0,1
235506,233232,--,0.000,0.000,0.000,0.0,0,0.0,1
235507,233228,--,0.000,0.000,0.000,0.0,0,0.0,1
235519,233219,--,0.000,0.000,0.000,0.0,0,0.0,1
235532,233205,--,0.000,0.000,0.000,0.0,0,0.0,1
235538,233199,--,0.000,0.000,0.000,0.0,0,0.0,1
235562,233211,--,0.000,0.000,0.000,0.0,0,0.0,1
235589,233211,--,0.000,0.000,0.000,0.0,0,0.0,1
235631,233228,--,0.000,0.000,0.000,0.0,0,0.0,1
235644,233234,--,0.000,0.000,0.000,0.0,0,0.0,1
235671,233245,--,0.000,0.000,0.000,0.0,0,0.0,1
235693,233255,--,0.000,0.000,0.000,0.0,0,0.0,1
235690,233256,--,0.000,0.000,0.000,0.0,0,0.0,1
235685,233240,--,0.000,0.000,0.000,0.0,0,0.0,1
235666,233221,--,0.000,0.000,0.000,0.0,0,0.0,1
235677,233209,--,0.000,0.000,0.000,0.0,0,0.0,1
235699,233217,--,0.000,0.000,0.000,0.0,0,0.0,1
235723,233243,--,0.000,0.000,0.000,0.0,0,0.0,1
235746,233258,--,0.000,0.000,0.000,0.0,0,0.0,1
235722,233256,--,0.000,0.000,0.000,0.0,0,0.0,1
235610,233218,--,0.000,0.000,0.000,0.0,0,0.0,1
235487,233165,--,0.000,0.000,0.000,0.0,0,0.0,1
235387,233127,--,0.000,0.000,0.000,0.0,0,0.0,1
235329,233100,--,0.000,0.000,0.000,0.0,0,0.0,1
235311,233084,--,0.000,0.000,0.000,0.0,0,0.0,1
235313,233068,--,0.000,0.000,0.000,0.0,0,0.0,1
235325,233061,--,0.000,0.000,0.000,0.0,0,0.0,1
235346,233054,--,0.000,0.000,0.000,0.0,0,0.0,1
235361,233049,--,0.000,0.000,0.000,0.0,0,0.0,1
235339,233028,--,0.000,0.000,0.000,0.0,0,0.0,1
235340,233004,--,0.000,0.000,0.000,0.0,0,0.0,1
235348,233007,--,0.000,0.000,0.000,0.0,0,0.0,1
235360,233014,--,0.000,0.000,0.000,0.0,0,0.0,1
235368,233011,--,0.000,0.000,0.000,0.0,0,0.0,1
235375,233020,--,0.000,0.000,0.000,0.0,0,0.0,1
235379,233021,--,0.000,0.000,0.000,0.0,0,0.0,1
235377,233013,--,0.000,0.000,0.000,0.0,0,0.0,1
235366,233017,--,0.000,0.000,0.000,0.0,0,0.0,1
235368,233011,--,0.000,0.000,0.000,0.0,0,0.0,1
235374,233014,--,0.000,0.000,0.000,0.0,0,0.0,1
235396,233023,--,0.000,0.000,0.000,0.0,0,0.0,1
235402,233020,--,0.000,0.000,0.000,0.0,0,0.0,1
235429,233029,--,0.000,0.000,0.000,0.0,0,0.0,1
235439,233025,--,0.000,0.000,0.000,0.0,0,0.0,1
235467,233040,--,0.000,0.000,0.000,0.0,0,0.0,1
235476,233038,--,0.000,0.000,0.000,0.0,0,0.0,1
235477,233019,--,0.000,0.000,0.000,0.0,0,0.0,1
235464,232996,--,0.000,0.000,0.000,0.0,0,0.0,1
235475,232989,--,0.000,0.000,0.000,0.0,0,0.0,1
235474,232968,--,0.000,0.000,0.000,0.0,0,0.0,1
235481,232961,--,0.000,0.000,0.000,0.0,0,0.0,1
235489,232962,--,0.000,0.000,0.000,0.0,0,0.0,1
235504,232957,--,0.000,0.000,0.000,0.0,0,0.0,1
235512,232964,--,0.000,0.000,0.000,0.0,0,0.0,1
235531,232970,--,0.000,0.000,0.000,0.0,0,0.0,1
235544,232979,--,0.000,0.000,0.000,0.0,0,0.0,1
235496,232971,--,0.000,0.000,0.000,0.0,0,0.0,1
235404,232945,--,0.000,0.000,0.000,0.0,0,0.0,1
235315,232920,--,0.000,0.000,0.000,0.0,0,0.0,1
235250,232903,--,0.000,0.000,0.000,0.0,0,0.0,1
235211,232884,--,0.000,0.000,0.000,0.0,0,0.0,1
235195,232873,--,0.000,0.000,0.000,0.0,0,0.0,1
235184,232853,--,0.000,0.000,0.000,0.0,0,0.0,1
235176,232824,--,0.000,0.000,0.000,0.0,0,0.0,1
235166,232797,--,0.000,0.000,0.000,0.0,0,0.0,1
235177,232777,--,0.000,0.000,0.000,0.0,0,0.0,1
235156,232767,--,0.000,0.000,0.000,0.0,0,0.0,1
235165,232748,--,0.000,0.000,0.000,0.0,0,0.0,1
235169,232742,--,0.000,0.000,0.000,0.0,0,0.0,1
235199,232754,--,0.000,0.000,0.000,0.0,0,0.0,1
235207,232751,--,0.000,0.000,0.000,0.0,0,0.0,1
235211,232756,--,0.000,0.000,0.000,0.0,0,0.0,1
235217,232760,--,0.000,0.000,0.000,0.0,0,0.0,1
235220,232769,--,0.000,0.000,0.000,0.0,0,0.0,1
235223,232760,--,0.000,0.000,0.000,0.0,0,0.0,1
235205,232747,--,0.000,0.000,0.000,0.0,0,0.0,1
235204,232738,--,0.000,0.000,0.000,0.0,0,0.0,1
235182,232710,--,0.000,0.000,0.000,0.0,0,0.0,1
235181,232686,--,0.000,0.000,0.000,0.0,0,0.0,1
235179,232665,--,0.000,0.000,0.000,0.0,0,0.0,1
235184,232642,--,0.000,0.000,0.000,0.0,0,0.0,1
235189,232632,--,0.000,0.000,0.000,0.0,0,0.0,1
235196,232628,--,0.000,0.000,0.000,0.0,0,0.0,1
235207,232619,--,0.000,0.000,0.000,0.0,0,0.0,1
235217,232631,--,0.000,0.000,0.000,0.0,0,0.0,1
235220,232629,--,0.000,0.000,0.000,0.0,0,0.0,1
235256,232647,--,0.000,0.000,0.000,0.0,0,0.0,1
235292,232671,--,0.000,0.000,0.000,0.0,0,0.0,1
235297,232676,--,0.000,0.000,0.000,0.0,0,0.0,1
235312,232705,--,0.000,0.000,0.000,0.0,0,0.0,1
235306,232698,--,0.000,0.000,0.000,0.0,0,0.0,1
235302,232694,--,0.000,0.000,0.000,0.0,0,0.0,1
235236,232643,--,0.000,0.000,0.000,0.0,0,0.0,1
235127,232576,--,0.000,0.000,0.000,0.0,0,0.0,1
234973,232488,--,0.000,0.000,0.000,0.0,0,0.0,1
234863,232424,--,0.000,0.000,0.000,0.0,0,0.0,1
234778,232376,--,0.000,0.000,0.000,0.0,0,0.0,1
234756,232362,--,0.000,0.000,0.000,0.0,0,0.0,1
234785,232372,--,0.000,0.000,0.000,0.0,0,0.0,1
234825,232394,--,0.000,0.000,0.000,0.0,0,0.0,1
234861,232412,--,0.000,0.000,0.000,0.0,0,0.0,1
234895,232421,--,0.000,0.000,0.000,0.0,0,0.0,1
234930,232438,--,0.000,0.000,0.000,0.0,0,0.0,1
234954,232452,--,0.000,0.000,0.000,0.0,0,0.0,1
235009,232473,--,0.000,0.000,0.000,0.0,0,0.0,1
235049,232499,--,0.000,0.000,0.000,0.0,0,0.0,1
235073,232528,--,0.000,0.000,0.000,0.0,0,0.0,1
235080,232532,--,0.000,0.000,0.000,0.0,0,0.0,1
235077,232527,--,0.000,0.000,0.000,0.0,0,0.0,1
235054,232494,--,0.000,0.000,0.000,0.0,0,0.0,1
235034,232476,--,0.000,0.000,0.000,0.0,0,0.0,1
235026,232451,--,0.000,0.000,0.000,0.0,0,0.0,1
235024,232440,--,0.000,0.000,0.000,0.0,0,0.0,1
235032,232453,--,0.000,0.000,0.000,0.0,0,0.0,1
235053,232443,--,0.000,0.000,0.000,0.0,0,0.0,1
235069,232440,--,0.000,0.000,0.000,0.0,0,0.0,1
235105,232459,--,0.000,0.000,0.000,0.0,0,0.0,1
235167,232488,--,0.000,0.000,0.000,0.0,0,0.0,1
235212,232513,--,0.000,0.000,0.000,0.0,0,0.0,1
235233,232524,--,0.000,0.000,0.000,0.0,0,0.0,1
235239,232524,--,0.000,0.000,0.000,0.0,0,0.0,1
235235,232505,--,0.000,0.000,0.000,0.0,0,0.0,1
235234,232490,--,0.000,0.000,0.000,0.0,0,0.0,1
235223,232483,--,0.000,0.000,0.000,0.0,0,0.0,1
235217,232457,--,0.000,0.000,0.000,0.0,0,0.0,1
235215,232439,--,0.000,0.000,0.000,0.0,0,0.0,1
235217,232425,--,0.000,0.000,0.000,0.0,0,0.0,1
235224,232418,--,0.000,0.000,0.000,0.0,0,0.0,1
235228,232410,--,0.000,0.000,0.000,0.0,0,0.0,1
235201,232394,--,0.000,0.000,0.000,0.0,0,0.0,1
235134,232349,--,0.000,0.000,0.000,0.0,0,0.0,1
235012,232300,--,0.000,0.000,0.000,0.0,0,0.0,1
234891,232245,--,0.000,0.000,0.000,0.0,0,0.0,1
234811,232206,--,0.000,0.000,0.000,0.0,0,0.0,1
234774,232184,--,0.000,0.000,0.000,0.0,0,0.0,1
234790,232196,--,0.000,0.000,0.000,0.0,0,0.0,1
234838,232208,--,0.000,0.000,0.000,0.0,0,0.0,1
234871,232217,--,0.000,0.000,0.000,0.0,0,0.0,1
234906,232224,--,0.000,0.000,0.000,0.0,0,0.0,1
234930,232230,--,0.000,0.000,0.000,0.0,0,0.0,1
234953,232233,--,0.000,0.000,0.000,0.0,0,0.0,1
235000,232243,--,0.000,0.000,0.000,0.0,0,0.0,1
235020,232255,--,0.000,0.000,0.000,0.0,0,0.0,1
235058,232260,--,0.000,0.000,0.000,0.0,0,0.0,1
235080,232278,--,0.000,0.000,0.000,0.0,0,0.0,1
235086,232282,--,0.000,0.000,0.000,0.0,0,0.0,1
235090,232287,--,0.000,0.000,0.000,0.0,0,0.0,1
235098,232284,--,0.000,0.000,0.000,0.0,0,0.0,1
235106,232282,--,0.000,0.000,0.000,0.0,0,0.0,1
235112,232287,--,0.000,0.000,0.000,0.0,0,0.0,1
235155,232311,--,0.000,0.000,0.000,0.0,0,0.0,1
235174,232321,--,0.000,0.000,0.000,0.0,0,0.0,1
235196,232323,--,0.000,0.000,0.000,0.0,0,0.0,1
235227,232322,--,0.000,0.000,0.000,0.0,0,0.0,1
235246,232329,--,0.000,0.000,0.000,0.0,0,0.0,1
235264,232326,--,0.000,0.000,0.000,0.0,0,0.0,1
235275,232325,--,0.000,0.000,0.000,0.0,0,0.0,1
235292,232336,--,0.000,0.000,0.000,0.0,0,0.0,1
235303,232333,--,0.000,0.000,0.000,0.0,0,0.0,1
235322,232335,--,0.000,0.000,0.000,0.0,0,0.0,1
235323,232326,--,0.000,0.000,0.000,0.0,0,0.0,1
235340,232327,--,0.000,0.000,0.000,0.0,0,0.0,1
235345,232320,--,0.000,0.000,0.000,0.0,0,0.0,1
235361,232326,--,0.000,0.000,0.000,0.0,0,0.0,1
235376,232325,--,0.000,0.000,0.000,0.0,0,0.0,1
235413,232343,--,0.000,0.000,0.000,0.0,0,0.0,1
235430,232344,--,0.000,0.000,0.000,0.0,0,0.0,1
235439,232349,--,0.000,0.000,0.000,0.0,0,0.0,1
235407,232328,--,0.000,0.000,0.000,0.0,0,0.0,1
235320,232285,--,0.000,0.000,0.000,0.0,0,0.0,1
235193,232238,--,0.000,0.000,0.000,0.0,0,0.0,1
235107,232193,--,0.000,0.000,0.000,0.0,0,0.0,1
235066,232192,--,0.000,0.000,0.000,0.0,0,0.0,1
235081,232195,--,0.000,0.000,0.000,0.0,0,0.0,1
235113,232212,--,0.000,0.000,0.000,0.0,0,0.0,1
235144,232222,--,0.000,0.000,0.000,0.0,0,0.0,1
235178,232225,--,0.000,0.000,0.000,0.0,0,0.0,1
235187,232224,--,0.000,0.000,0.000,0.0,0,0.0,1
235201,232212,--,0.000,0.000,0.000,0.0,0,0.0,1
235210,232205,--,0.000,0.000,0.000,0.0,0,0.0,1
235224,232197,--,0.000,0.000,0.000,0.0,0,0.0,1
235231,232201,--,0.000,0.000,0.000,0.0,0,0.0,1
235215,232182,--,0.000,0.000,0.000,0.0,0,0.0,1
235202,232160,--,0.000,0.000,0.000,0.0,0,0.0,1
235188,232151,--,0.000,0.000,0.000,0.0,0,0.0,1
235182,232141,--,0.000,0.000,0.000,0.0,0,0.0,1
235177,232131,--,0.000,0.000,0.000,0.0,0,0.0,1
235167,232124,--,0.000,0.000,0.000,0.0,0,0.0,1
235158,232120,--,0.000,0.000,0.000,0.0,0,0.0,1
235163,232109,--,0.000,0.000,0.000,0.0,0,0.0,1
235177,232101,--,0.000,0.000,0.000,0.0,0,0.0,1
235195,232108,--,0.000,0.000,0.000,0.0,0,0.0,1
235197,232102,--,0.000,0.000,0.000,0.0,0,0.0,1
235211,232095,--,0.000,0.000,0.000,0.0,0,0.0,1
235220,232094,--,0.000,0.000,0.000,0.0,0,0.0,1
235223,232092,--,0.000,0.000,0.000,0.0,0,0.0,1
235228,232083,--,0.000,0.000,0.000,0.0,0,0.0,1
235243,232081,--,0.000,0.000,0.000,0.0,0,0.0,1
235258,232074,--,0.000,0.000,0.000,0.0,0,0.0,1
235262,232071,--,0.000,0.000,0.000,0.0,0,0.0,1
235259,232062,--,0.000,0.000,0.000,0.0,0,0.0,1
235257,232051,--,0.000,0.000,0.000,0.0,0,0.0,1
235255,232044,--,0.000,0.000,0.000,0.0,0,0.0,1
235258,232043,--,0.000,0.000,0.000,0.0,0,0.0,1
235274,232044,--,0.000,0.000,0.000,0.0,0,0.0,1
235271,232040,--,0.000,0.000,0.000,0.0,0,0.0,1
235235,232009,--,0.000,0.000,0.000,0.0,0,0.0,1
235153,231969,--,0.000,0.000,0.000,0.0,0,0.0,1
235062,231924,--,0.000,0.000,0.000,0.0,0,0.0,1
234963,231889,--,0.000,0.000,0.000,0.0,0,0.0,1
234928,231874,--,0.000,0.000,0.000,0.0,0,0.0,1
234928,231881,--,0.000,0.000,0.000,0.0,0,0.0,1
234970,231890,--,0.000,0.000,0.000,0.0,0,0.0,1
235008,231908,--,0.000,0.000,0.000,0.0,0,0.0,1
235049,231922,--,0.000,0.000,0.000,0.0,0,0.0,1
235076,231914,--,0.000,0.000,0.000,0.0,0,0.0,1
235092,231920,--,0.000,0.000,0.000,0.0,0,0.0,1
235109,231920,--,0.000,0.000,0.000,0.0,0,0.0,1
235131,231938,--,0.000,0.000,0.000,0.0,0,0.0,1
235160,231941,--,0.000,0.000,0.000,0.0,0,0.0,1
235184,231946,--,0.000,0.000,0.000,0.0,0,0.0,1
235190,231940,--,0.000,0.000,0.000,0.0,0,0.0,1
235184,231938,--,0.000,0.000,0.000,0.0,0,0.0,1
235169,231920,--,0.000,0.000,0.000,0.0,0,0.0,1
235169,231925,--,0.000,0.000,0.000,0.0,0,0.0,1
235160,231920,--,0.000,0.000,0.000,0.0,0,0.0,1
235174,231933,--,0.000,0.000,0.000,0.0,0,0.0,1
235200,231941,--,0.000,0.000,0.000,0.0,0,0.0,3
235241,231944,--,0.000,0.000,0.000,0.0,0,0.0,3
235248,231944,--,0.000,0.000,0.000,0.0,0,0.0,3
235275,231950,--,0.000,0.000,0.000,0.0,0,0.0,3
235308,231962,--,0.000,0.000,0.000,0.0,0,0.0,3
235326,231965,--,0.000,0.000,0.000,0.0,0,0.0,3
235356,231977,--,0.000,0.000,0.000,0.0,0,0.0,3
235375,231979,--,0.000,0.000,0.000,0.0,0,0.0,3
235382,231977,--,0.000,0.000,0.000,0.0,0,0.0,3
235394,231968,--,0.000,0.000,0.000,0.0,0,0.0,3
235411,231974,--,0.000,0.000,0.000,0.0,0,0.0,3
235441,231989,--,0.000,0.000,0.000,0.0,0,0.0,3
235449,231983,--,0.000,0.000,0.000,0.0,0,0.0,3
235470,231988,--,0.000,0.000,0.000,0.0,0,0.0,3
235509,232001,--,0.000,0.000,0.000,0.0,0,0.0,3
235530,232016,--,0.000,0.000,0.000,0.0,0,0.0,3
235556,232021,--,0.000,0.000,0.000,0.0,0,0.0,3
235549,232015,--,0.000,0.000,0.000,0.0,0,0.0,3
235482,231979,--,0.000,0.000,0.000,0.0,0,0.0,3
235363,231919,--,0.000,0.000,0.000,0.0,0,0.0,3
235236,231866,--,0.000,0.000,0.000,0.0,0,0.0,3
235147,231824,--,0.000,0.000,0.000,0.0,0,0.0,3
235127,231810,--,0.000,0.000,0.000,0.0,0,0.0,3
235141,231828,--,0.000,0.000,0.000,0.0,0,0.0,3
235178,231835,--,0.000,0.000,0.000,0.0,0,0.0,3
235208,231848,--,0.000,0.000,0.000,0.0,0,0.0,3
235223,231845,--,0.000,0.000,0.000,0.0,0,0.0,3
235246,231845,--,0.000,0.000,0.000,0.0,0,0.0,3
235247,231847,--,0.000,0.000,0.000,0.0,0,0.0,3
235269,231847,--,0.000,0.000,0.000,0.0,0,0.0,3
235287,231856,--,0.000,0.000,0.000,0.0,0,0.0,3
235308,231860,--,0.000,0.000,0.000,0.0,0,0.0,3
235319,231866,--,0.000,0.000,0.000,0.0,0,0.0,3
235315,231861,--,0.000,0.000,0.000,0.0,0,0.0,3
235317,231853,--,0.000,0.000,0.000,0.0,0,0.0,3
235325,231860,--,0.000,0.000,0.000,0.0,0,0.0,3
235322,231862,--,0.000,0.000,0.000,0.0,0,0.0,3
235316,231841,--,0.000,0.000,0.000,0.0,0,0.0,3
235320,231845,--,0.000,0.000,0.000,0.0,0,0.0,3
235317,231837,--,0.000,0.000,0.000,0.0,0,0.0,3
235331,231838,--,0.000,0.000,0.000,0.0,0,0.0,3
235355,231845,--,0.000,0.000,0.000,0.0,0,0.0,3
235371,231844,--,0.000,0.000,0.000,0.0,0,0.0,3
235392,231846,--,0.000,0.000,0.000,0.0,0,0.0,3
235406,231847,--,0.000,0.000,0.000,0.0,0,0.0,3
235427,231851,--,0.000,0.000,0.000,0.0,0,0.0,3
235431,231860,--,0.000,0.000,0.000,0.0,0,0.0,3
235437,231856,--,0.000,0.000,0.000,0.0,0,0.0,3
235438,231845,--,0.000,0.000,0.000,0.0,0,0.0,3
235436,231838,--,0.000,0.000,0.000,0.0,0,0.0,3
235437,231841,--,0.000,0.000,0.000,0.0,0,0.0,3
235452,231852,--,0.000,0.000,0.000,0.0,0,0.0,3
235466,231847,--,0.000,0.000,0.000,0.0,0,0.0,3
235489,231853,--,0.000,0.000,0.000,0.0,0,0.0,3
235502,231851,--,0.000,0.000,0.000,0.0,0,0.0,3
235514,231860,--,0.000,0.000,0.000,0.0,0,0.0,3
235531,231871,--,0.000,0.000,0.000,0.0,0,0.0,3
235528,231868,--,0.000,0.000,0.000,0.0,0,0.0,3
235459,231835,--,0.000,0.000,0.000,0.0,0,0.0,3
235332,231783,--,0.000,0.000,0.000,0.0,0,0.0,3
235212,231724,--,0.000,0.000,0.000,0.0,0,0.0,3
235134,231691,--,0.000,0.000,0.000,0.0,0,0.0,3
235124,231688,--,0.000,0.000,0.000,0.0,0,0.0,3
235133,231697,--,0.000,0.000,0.000,0.0,0,0.0,3
235163,231711,--,0.000,0.000,0.000,0.0,0,0.0,3
235188,231713,--,0.000,0.000,0.000,0.0,0,0.0,3
235202,231713,--,0.000,0.000,0.000,0.0,0,0.0,3
235216,231716,--,0.000,0.000,0.000,0.0,0,0.0,3
235236,231727,--,0.000,0.000,0.000,0.0,0,0.0,3
235256,231733,--,0.000,0.000,0.000,0.0,0,0.0,3
235265,231732,--,0.000,0.000,0.000,0.0,0,0.0,3
235251,231718,--,0.000,0.000,0.000,0.0,0,0.0,3
235258,231711,--,0.000,0.000,0.000,0.0,0,0.0,3
235254,231707,--,0.000,0.000,0.000,0.0,0,0.0,3
235235,231693,--,0.000,0.000,0.000,0.0,0,0.0,3
235222,231695,--,0.000,0.000,0.000,0.0,0,0.0,3
235217,231683,--,0.000,0.000,0.000,0.0,0,0.0,3
235223,231689,--,0.000,0.000,0.000,0.0,0,0.0,3
235227,231686,--,0.000,0.000,0.000,0.0,0,0.0,3
235234,231689,--,0.000,0.000,0.000,0.0,0,0.0,3
235246,231687,--,0.000,0.000,0.000,0.0,0,0.0,3
235255,231689,--,0.000,0.000,0.000,0.0,0,0.0,3
235259,231679,--,0.000,0.000,0.000,0.0,0,0.0,3
235256,231669,--,0.000,0.000,0.000,0.0,0,0.0,3
235257,231665,--,0.000,0.000,0.000,0.0,0,0.0,3
235256,231652,--,0.000,0.000,0.000,0.0,0,0.0,3
235264,231648,--,0.000,0.000,0.000,0.0,0,0.0,3
235257,231648,--,0.000,0.000,0.000,0.0,0,0.0,3
235278,231642,--,0.000,0.000,0.000,0.0,0,0.0,3
235283,231643,--,0.000,0.000,0.000,0.0,0,0.0,3
235296,231643,--,0.000,0.000,0.000,0.0,0,0.0,3
235289,231638,--,0.000,0.000,0.000,0.0,0,0.0,3
235296,231643,--,0.000,0.000,0.000,0.0,0,0.0,3
235296,231635,--,0.000,0.000,0.000,0.0,0,0.0,3
235309,231628,--,0.000,0.000,0.000,0.0,0,0.0,3
235312,231630,--,0.000,0.000,0.000,0.0,0,0.0,3
235304,231622,--,0.000,0.000,0.000,0.0,0,0.0,3
235260,231588,--,0.000,0.000,0.000,0.0,0,0.0,3
235152,231542,--,0.000,0.000,0.000,0.0,0,0.0,3
235030,231487,--,0.000,0.000,0.000,0.0,0,0.0,3
234919,231443,--,0.000,0.000,0.000,0.0,0,0.0,3
234879,231424,--,0.000,0.000,0.000,0.0,0,0.0,3
234865,231420,--,0.000,0.000,0.000,0.0,0,0.0,3
234878,231419,--,0.000,0.000,0.000,0.0,0,0.0,3
234893,231422,--,0.000,0.000,0.000,0.0,0,0.0,3
234907,231424,--,0.000,0.000,0.000,0.0,0,0.0,3
234927,231422,--,0.000,0.000,0.000,0.0,0,0.0,3
234933,231422,--,0.000,0.000,0.000,0.0,0,0.0,3
234939,231427,--,0.000,0.000,0.000,0.0,0,0.0,3
234966,231433,--,0.000,0.000,0.000,0.0,0,0.0,3
234986,231441,--,0.000,0.000,0.000,0.0,0,0.0,3
234994,231438,--,0.000,0.000,0.000,0.0,0,0.0,3
234996,231434,--,0.000,0.000,0.000,0.0,0,0.0,3
234984,231424,--,0.000,0.000,0.000,0.0,0,0.0,3
234997,231435,--,0.000,0.000,0.000,0.0,0,0.0,3
234985,231445,--,0.000,0.000,0.000,0.0,0,0.0,3
235004,231460,--,0.000,0.000,0.000,0.0,0,0.0,3
235017,231470,--,0.000,0.000,0.000,0.0,0,0.0,3
235047,231488,--,0.000,0.000,0.000,0.0,0,0.0,3
235054,231494,--,0.000,0.000,0.000,0.0,0,0.0,3
235061,231493,--,0.000,0.000,0.000,0.0,0,0.0,3
235080,231488,--,0.000,0.000,0.000,0.0,0,0.0,3
235097,231496,--,0.000,0.000,0.000,0.0,0,0.0,3
235109,231507,--,0.000,0.000,0.000,0.0,0,0.0,3
235126,231509,--,0.000,0.000,0.000,0.0,0,0.0,3
235141,231518,--,0.000,0.000,0.000,0.0,0,0.0,3
235143,231517,--,0.000,0.000,0.000,0.0,0,0.0,3
235167,231515,--,0.000,0.000,0.000,0.0,0,0.0,3
235183,231531,--,0.000,0.000,0.000,0.0,0,0.0,3
235204,231538,--,0.000,0.000,0.000,0.0,0,0.0,3
235216,231539,--,0.000,0.000,0.000,0.0,0,0.0,3
235228,231544,--,0.000,0.000,0.000,0.0,0,0.0,3
235238,231542,--,0.000,0.000,0.000,0.0,0,0.0,3
235269,231558,--,0.000,0.000,0.000,0.0,0,0.0,3
235288,231575,--,0.000,0.000,0.000,0.0,0,0.0,3
235297,231573,--,0.000,0.000,0.000,0.0,0,0.0,3
235296,231568,--,0.000,0.000,0.000,0.0,0,0.0,3
235260,231542,--,0.000,0.000,0.000,0.0,0,0.0,3
235154,231501,--,0.000,0.000,0.000,0.0,0,0.0,3
235045,231462,--,0.000,0.000,0.000,0.0,0,0.0,3
234960,231423,--,0.000,0.000,0.000,0.0,0,0.0,3
234920,231415,--,0.000,0.000,0.000,0.0,0,0.0,3
234946,231433,--,0.000,0.000,0.000,0.0,0,0.0,3
234971,231436,--,0.000,0.000,0.000,0.0,0,0.0,3
235007,231461,--,0.000,0.000,0.000,0.0,0,0.0,3
235042,231467,--,0.000,0.000,0.000,0.0,0,0.0,3
235051,231465,--,0.000,0.000,0.000,0.0,0,0.0,3
235079,231473,--,0.000,0.000,0.000,0.0,0,0.0,3
235100,231481,--,0.000,0.000,0.000,0.0,0,0.0,3
235127,231492,--,0.000,0.000,0.000,0.0,0,0.0,3
235126,231482,--,0.000,0.000,0.000,0.0,0,0.0,3
235123,231486,--,0.000,0.000,0.000,0.0,0,0.0,3
235122,231483,--,0.000,0.000,0.000,0.0,0,0.0,3
235089,231468,--,0.000,0.000,0.000,0.0,0,0.0,3
235064,231466,--,0.000,0.000,0.000,0.0,0,0.0,3
235049,231448,--,0.000,0.000,0.000,0.0,0,0.0,3
235068,231454,--,0.000,0.000,0.000,0.0,0,0.0,3
235093,231459,--,0.000,0.000,0.000,0.0,0,0.0,3
235106,231466,--,0.000,0.000,0.000,0.0,0,0.0,3
235109,231471,--,0.000,0.000,0.000,0.0,0,0.0,3
235131,231479,--,0.000,0.000,0.000,152.9,50,0.0,3
235146,231483,--,0.000,0.000,0.000,152.9,50,0.0,3
235167,231492,--,0.000,0.000,0.000,152.9,50,0.0,3
235174,231488,--,0.000,0.000,0.000,152.9,50,0.0,3
235183,231487,--,0.000,0.000,0.000,152.9,50,0.0,3
235191,231489,--,0.000,0.000,0.000,152.9,50,0.0,3
235190,231481,--,0.000,0.000,0.000,152.9,50,0.0,3
235197,231472,--,0.000,0.000,0.000,152.9,50,0.0,3
235207,231478,--,0.000,0.000,0.000,152.9,50,0.0,3
235221,231483,--,0.000,0.000,0.000,152.9,50,0.0,3
235239,231501,--,0.000,0.000,0.000,152.9,50,0.0,3
235247,231493,--,0.000,0.000,0.000,152.9,50,0.0,3
235259,231495,--,0.000,0.000,0.000,152.9,50,0.0,3
235275,231507,--,0.000,0.000,0.000,152.9,50,0.0,3
235297,231513,--,0.000,0.000,0.000,152.9,50,0.0,3
235312,231520,--,0.000,0.000,0.000,152.9,50,0.0,3
235291,231510,--,0.000,0.000,0.000,152.9,50,0.0,3
235197,231473,--,0.000,0.000,0.000,152.9,50,0.0,3
235094,231427,--,0.000,0.000,0.000,152.9,50,0.0,3
235010,231400,--,0.000,0.000,0.000,152.9,50,0.0,3
234968,231384,--,0.000,0.000,0.000,152.9,50,0.0,3
234947,231376,--,0.000,0.000,0.000,152.9,50,0.0,3
234956,231371,--,0.000,0.000,0.000,152.9,50,0.0,3
234952,231367,--,0.000,0.000,0.000,152.9,50,0.0,3
234939,231350,--,0.000,0.000,0.000,152.9,50,0.0,3
234929,231338,--,0.000,0.000,0.000,152.9,50,0.0,3
234917,231316,--,0.000,0.000,0.000,152.9,50,0.0,3
234928,231311,--,0.000,0.000,0.000,152.9,50,0.0,3
234943,231314,--,0.000,0.000,0.000,152.9,50,0.0,3
234939,231308,--,0.000,0.000,0.000,152.9,50,0.0,3
234940,231300,--,0.000,0.000,0.000,152.9,50,0.0,3
234931,231300,--,0.000,0.000,0.000,152.9,50,0.0,3
234917,231291,--,0.000,0.000,0.000,152.9,50,0.0,3
234902,231283,--,0.000,0.000,0.000,152.9,50,0.0,3
234904,231289,--,0.000,0.000,0.000,152.9,50,0.0,3
234912,231298,--,0.000,0.000,0.000,152.9,50,0.0,3
234919,231302,--,0.000,0.000,0.000,152.9,50,0.0,3
234935,231303,--,0.000,0.000,0.000,152.9,50,0.0,3
234936,231302,--,0.000,0.000,0.000,152.9,50,0.0,3
234948,231307,--,0.000,0.000,0.000,152.9,50,0.0,3
234966,231302,--,0.000,0.000,0.000,152.9,50,0.0,3
234987,231319,--,0.000,0.000,0.000,152.9,50,0.0,3
235008,231320,--,0.000,0.000,0.000,152.9,50,0.0,3
235017,231326,--,0.000,0.000,0.000,152.9,50,0.0,3
235023,231322,--,0.000,0.000,0.000,152.9,50,0.0,3
235046,231329,--,0.000,0.000,0.000,152.9,50,0.0,3
235057,231338,--,0.000,0.000,0.000,152.9,50,0.0,3
235059,231335,--,0.000,0.000,0.000,152.9,50,0.0,3
235064,231338,--,0.000,0.000,0.000,152.9,50,0.0,3
235082,231336,--,0.000,0.000,0.000,152.9,50,0.0,3
235085,231345,--,0.000,0.000,0.000,152.9,50,0.0,3
235098,231339,--,0.000,0.000,0.000,152.9,50,0.0,3
235121,231357,--,0.000,0.000,0.000,152.9,50,0.0,3
235151,231373,--,0.000,0.000,0.000,152.9,50,0.0,3
235169,231384,--,0.000,0.000,0.000,152.9,50,0.0,3
235141,231362,--,0.000,0.000,0.000,152.9,50,0.0,3
235056,231320,--,0.000,0.000,0.000,152.9,50,0.0,3
234943,231281,--,0.000,0.000,0.000,152.9,50,0.0,3
234852,231258,--,0.000,0.000,0.000,152.9,50,0.0,3
234822,231249,--,0.000,0.000,0.000,152.9,50,0.0,3
234818,231244,--,0.000,0.000,0.000,152.9,50,0.0,3
234830,231248,--,0.000,0.000,0.000,152.9,50,0.0,3
234854,231260,--,0.000,0.000,0.000,152.9,50,0.0,3
234862,231257,--,0.000,0.000,0.000,152.9,50,0.0,3
234867,231240,--,0.000,0.000,0.000,152.9,50,0.0,3
234853,231232,--,0.000,0.000,0.000,152.9,50,0.0,3
234873,231231,--,0.000,0.000,0.000,152.9,50,0.0,3
234886,231231,--,0.000,0.000,0.000,152.9,50,0.0,3
234907,231230,--,0.000,0.000,0.000,152.9,50,0.0,3
234913,231243,--,0.000,0.000,0.000,152.9,50,0.0,3
234924,231242,--,0.000,0.000,0.000,152.9,50,0.0,3
234952,231264,--,0.000,0.000,0.000,152.9,50,0.0,3
234980,231289,--,0.000,0.000,0.000,152.9,50,0.0,3
234980,231305,--,0.000,0.000,0.000,152.9,50,0.0,3
235011,231326,--,0.000,0.000,0.000,152.9,50,0.0,3
235031,231343,--,0.000,0.000,0.000,152.9,50,0.0,3
235060,231371,--,0.000,0.000,0.000,152.9,50,0.0,3
235101,231391,--,0.000,0.000,0.000,152.9,50,93.0,3
235135,231426,--,0.000,0.000,0.000,152.9,50,93.0,3
235172,231450,--,0.000,0.000,0.000,152.9,50,93.0,3
235216,231465,--,0.000,0.000,0.000,152.9,50,93.0,3
235249,231483,--,0.000,0.000,0.000,152.9,50,93.0,3
235268,231489,--,0.000,0.000,0.000,152.9,50,93.0,3
235287,231477,--,0.000,0.000,0.000,152.9,50,93.0,3
235305,231459,--,0.000,0.000,0.000,152.9,50,93.0,3
235295,231407,--,0.000,0.000,0.000,152.9,50,93.0,3
235249,231280,--,0.000,0.000,0.000,152.9,50,93.0,3
235197,231096,--,0.000,0.000,0.000,152.9,50,93.0,3
235172,230857,--,0.000,0.000,0.000,152.9,50,93.0,3
235111,230552,--,0.000,0.000,0.000,152.9,50,93.0,3
235019,230100,--,0.000,0.000,0.000,152.9,50,93.0,3
235335,229796,--,0.000,0.000,0.000,152.9,50,93.0,3
235656,229744,--,0.000,0.000,0.000,152.9,50,93.0,3
235914,229913,--,0.000,0.000,0.000,152.9,50,93.0,3
236446,230241,--,0.000,0.000,0.000,152.9,50,93.0,3
233517,228064,--,0.000,0.000,0.000,152.9,50,93.0,3
199319,211269,--,0.000,0.000,0.000,152.9,50,93.0,3
167127,186289,--,0.000,0.000,0.000,152.9,50,93.0,3
182811,202654,--,0.000,0.000,0.000,152.9,50,93.0,3
213235,223875,--,0.000,0.000,0.000,152.9,50,93.0,3
223242,221937,--,0.000,0.000,0.000,152.9,50,93.0,3
230807,227580,--,0.000,0.000,0.000,152.9,50,93.0,3
234951,229938,--,0.000,0.000,0.000,152.9,50,93.0,3
237609,231932,--,0.000,0.000,0.000,152.9,50,93.0,3
239668,233159,--,0.000,0.000,0.000,152.9,50,93.0,3
240386,233460,--,0.000,0.000,0.000,152.9,50,93.0,3
238764,231811,--,0.000,0.000,0.000,152.9,50,93.0,3
236702,229696,--,0.000,0.000,0.000,152.9,50,93.0,3
235274,228166,--,0.000,0.000,0.000,152.9,50,93.0,3
234815,227546,--,0.000,0.000,0.000,152.9,50,93.0,3
234833,227345,--,0.000,0.000,0.000,152.9,50,93.0,3
234896,227326,--,0.000,0.000,0.000,152.9,50,93.0,3
234780,227292,--,0.000,0.000,0.000,152.9,50,93.0,3
234493,227148,--,0.000,0.000,0.000,152.9,50,93.0,3
234329,227056,--,0.000,0.000,0.000,152.9,50,93.0,3
234495,227145,--,0.000,0.000,0.000,152.9,50,93.0,3
234821,227370,--,0.000,0.000,0.000,152.9,50,93.0,3
235488,227832,--,0.000,0.000,0.000,152.9,50,93.0,3
236554,228609,--,0.000,0.000,0.000,152.9,50,93.0,3
237347,229182,--,0.000,0.000,0.000,152.9,50,93.0,3
237844,229485,--,0.000,0.000,0.000,150.8,99,93.0,3
238155,229711,--,0.000,0.000,0.000,150.8,99,93.0,3
238240,229766,--,0.000,0.000,0.000,150.8,99,93.0,3
238052,229618,--,0.000,0.000,0.000,150.8,99,93.0,3
237676,229318,--,0.000,0.000,0.000,150.8,99,93.0,3
237299,228989,--,0.000,0.000,0.000,150.8,99,93.0,3
237004,228701,--,0.000,0.000,0.000,150.8,99,93.0,3
236850,228489,--,0.000,0.000,0.000,150.8,99,93.0,3
236825,228366,--,0.000,0.000,0.000,150.8,99,93.0,3
236956,228302,--,0.000,0.000,0.000,150.8,99,93.0,3
237183,228296,--,0.000,0.000,0.000,150.8,99,93.0,3
237365,228318,--,0.000,0.000,0.000,0.0,0,93.0,3
237415,228317,--,0.000,0.000,0.000,0.0,0,93.0,3
237326,228268,--,0.000,0.000,0.000,150.8,99,93.0,3
237213,228211,--,0.000,0.000,0.000,150.8,99,93.0,3
237116,228168,--,0.000,0.000,0.000,150.8,99,93.0,3
237054,228139,--,0.000,0.000,0.000,150.8,99,93.0,3
237048,228125,--,0.000,0.000,0.000,150.8,99,93.0,3
237058,228116,--,0.000,0.000,0.000,150.8,99,93.0,3
236964,228071,--,0.000,0.000,0.000,150.8,99,93.0,3
236688,227948,--,0.000,0.000,0.000,150.8,99,93.0,3
236444,227856,--,0.000,0.000,0.000,150.8,99,93.0,3
236258,227786,--,0.000,0.000,0.000,150.8,99,93.0,3
236141,227734,--,0.000,0.000,0.000,150.8,99,93.0,3
236102,227722,--,0.000,0.000,0.000,150.8,99,93.0,3
236066,227718,--,0.000,0.000,0.000,150.8,99,93.0,3
236065,227715,--,0.000,0.000,0.000,150.8,99,93.0,3
236078,227724,--,0.000,0.000,0.000,150.8,99,93.0,3
236066,227740,--,0.000,0.000,0.000,150.8,99,93.0,3
236076,227757,--,0.000,0.000,0.000,150.8,99,93.0,3
236079,227765,--,0.000,0.000,0.000,150.8,99,93.0,3
236085,227783,--,0.000,0.000,0.000,150.8,99,93.0,3
236090,227773,--,0.000,0.000,0.000,150.8,99,93.0,3
236124,227795,--,0.000,0.000,0.000,150.8,99,93.0,3
236123,227773,--,0.000,0.000,0.000,150.8,99,93.0,3
236126,227762,--,0.000,0.000,0.000,150.8,99,93.0,3
236115,227747,--,0.000,0.000,0.000,150.8,99,93.0,3
236089,227751,--,0.000,0.000,0.000,150.8,99,93.0,3
236100,227785,--,0.000,0.000,0.000,150.8,99,93.0,3
236145,227828,--,0.000,0.000,0.000,150.8,99,93.0,3
236188,227852,--,0.000,0.000,0.000,150.8,99,93.0,3
236222,227869,--,0.000,0.000,0.000,150.8,99,93.0,3
236287,227883,--,0.000,0.000,0.000,150.8,99,93.0,3
236416,227900,--,0.000,0.000,0.000,150.8,99,93.0,3
236530,227962,--,0.000,0.000,0.000,150.8,99,93.0,3
236584,227993,--,0.000,0.000,0.000,150.8,99,93.0,3
236548,228011,--,0.000,0.000,0.000,150.8,99,93.0,3
236526,228037,--,0.000,0.000,0.000,150.8,99,93.0,3
236551,228080,--,0.000,0.000,0.000,150.8,99,93.0,3
236571,228115,--,0.000,0.000,0.000,150.8,99,93.0,3
236573,228136,--,0.000,0.000,0.000,150.8,99,93.0,3
236578,228139,--,0.000,0.000,0.000,150.8,99,93.0,3
236610,228133,--,0.000,0.000,0.000,150.8,99,93.0,3
236632,228133,--,0.000,0.000,0.000,150.8,99,93.0,3
236645,228137,--,0.000,0.000,0.000,150.8,99,93.0,3
236666,228130,--,0.000,0.000,0.000,150.8,99,93.0,3
236690,228134,--,0.000,0.000,0.000,150.8,99,93.0,3
236736,228137,--,0.000,0.000,0.000,150.8,99,93.0,3
236800,228150,--,0.000,0.000,0.000,150.8,99,93.0,3
236894,228184,--,0.000,0.000,0.000,150.8,99,93.0,3
236976,228210,--,0.000,0.000,0.000,150.8,99,93.0,3
237059,228238,--,0.000,0.000,0.000,150.8,99,93.0,3
237099,228259,--,0.000,0.000,0.000,150.8,99,93.0,3
236954,228199,--,0.000,0.000,0.000,150.8,99,93.0,3
236695,228100,--,0.000,0.000,0.000,150.8,99,93.0,3
236494,228013,--,0.000,0.000,0.000,150.8,99,93.0,3
236420,227984,--,0.000,0.000,0.000,150.8,99,93.0,3
236420,227971,--,0.000,0.000,0.000,150.8,99,93.0,3
236485,227998,--,0.000,0.000,0.000,150.8,99,93.0,3
236557,228037,--,0.000,0.000,0.000,150.8,99,93.0,3
236616,228073,--,0.000,0.000,0.000,150.8,99,93.0,3
236670,228094,--,0.000,0.000,0.000,150.8,99,93.0,3
236692,228113,--,0.000,0.000,0.000,150.8,99,93.0,3
236691,228112,--,0.000,0.000,0.000,150.8,99,93.0,3
236708,228130,--,0.000,0.000,0.000,150.8,99,93.0,3
236740,228143,--,0.000,0.000,0.000,150.8,99,93.0,3
236724,228138,--,0.000,0.000,0.000,150.8,99,93.0,3
236652,228119,--,0.000,0.000,0.000,150.8,99,93.0,3
236590,228110,--,0.000,0.000,0.000,150.8,99,93.0,3
236547,228110,--,0.000,0.000,0.000,150.8,99,93.0,3
236516,228115,--,0.000,0.000,0.000,150.8,99,93.0,3
236504,228116,--,0.000,0.000,0.000,150.8,99,93.0,3
236531,228129,--,0.000,0.000,0.000,150.8,99,93.0,3
236585,228149,--,0.000,0.000,0.000,150.8,99,93.0,3
236676,228173,--,0.000,0.000,0.000,150.8,99,93.0,3
236759,228193,--,0.000,0.000,0.000,150.8,99,93.0,3
236837,228213,--,0.000,0.000,0.000,150.8,99,93.0,3
236895,228235,--,0.000,0.000,0.000,150.8,99,93.0,3
236940,228242,--,0.000,0.000,0.000,150.8,99,93.0,3
236965,228262,--,0.000,0.000,0.000,150.8,99,93.0,3
237053,228284,--,0.000,0.000,0.000,150.8,99,93.0,3
237148,228328,--,0.000,0.000,0.000,150.8,99,93.0,3
237208,228349,--,0.000,0.000,0.000,150.8,99,93.0,3
237225,228360,--,0.000,0.000,0.000,150.8,99,93.0,3
237236,228363,--,0.000,0.000,0.000,150.8,99,93.0,3
237220,228364,--,0.000,0.000,0.000,150.8,99,93.0,3
237211,228363,--,0.000,0.000,0.000,150.8,99,93.0,3
237201,228356,--,0.000,0.000,0.000,150.8,99,93.0,3
237229,228369,--,0.000,0.000,0.000,150.8,99,93.0,3
237227,228364,--,0.000,0.000,0.000,150.8,99,93.0,3
237253,228375,--,0.000,0.000,0.000,150.7,98,93.0,3
237265,228377,--,0.000,0.000,0.000,150.7,98,93.0,3
237281,228390,--,0.000,0.000,0.000,150.7,98,93.0,3
237318,228402,--,0.000,0.000,0.000,150.7,98,93.0,3
237346,228415,--,0.000,0.000,0.000,150.7,98,93.0,3
237325,228406,--,0.000,0.000,0.000,150.7,98,93.0,3
237205,228358,--,0.000,0.000,0.000,150.7,98,93.0,3
236917,228258,--,0.000,0.000,0.000,150.7,98,93.0,3
236617,228148,--,0.000,0.000,0.000,150.7,98,93.0,3
236439,228091,--,0.000,0.000,0.000,150.7,98,93.0,3
236368,228061,--,0.000,0.000,0.000,150.7,98,93.0,3
236390,228078,--,0.000,0.000,0.000,150.7,98,93.0,3
236424,228099,--,0.000,0.000,0.000,150.7,98,93.0,3
236480,228120,--,0.000,0.000,0.000,150.7,98,93.0,3
236508,228150,--,0.000,0.000,0.000,150.7,98,93.0,3
236508,228160,--,0.000,0.000,0.000,150.7,98,93.0,3
236514,228164,--,0.000,0.000,0.000,150.7,98,93.0,3
236521,228160,--,0.000,0.000,0.000,150.7,98,93.0,3
236554,228177,--,0.000,0.000,0.000,150.7,98,93.0,3
236579,228189,--,0.000,0.000,0.000,150.7,98,93.0,3
236601,228199,--,0.000,0.000,0.000,150.7,98,93.0,3
236607,228205,--,0.000,0.000,0.000,150.7,98,93.0,3
236607,228210,--,0.000,0.000,0.000,150.7,98,93.0,3
236589,228198,--,0.000,0.000,0.000,150.7,98,93.0,3
236566,228191,--,0.000,0.000,0.000,150.7,98,93.0,3
236546,228189,--,0.000,0.000,0.000,150.7,98,93.0,3
236534,228205,--,0.000,0.000,0.000,150.7,98,93.0,3
236559,228216,--,0.000,0.000,0.000,0.0,0,93.0,3
236573,228217,--,0.000,0.000,0.000,0.0,0,93.0,3
236586,228233,--,0.000,0.000,0.000,0.0,0,93.0,3
236613,228254,--,0.000,0.000,0.000,0.0,0,93.0,3
236641,228258,--,0.000,0.000,0.000,0.0,0,93.0,3
236679,228283,--,0.000,0.000,0.000,0.0,0,93.0,3
236715,228294,--,0.000,0.000,0.000,0.0,0,93.0,3
236727,228300,--,0.000,0.000,0.000,0.0,0,93.0,3
236745,228315,--,0.000,0.000,0.000,0.0,0,93.0,3
236758,228317,--,0.000,0.000,0.000,0.0,0,93.0,3
236782,228329,--,0.000,0.000,0.000,0.0,0,93.0,3
236803,228338,--,0.000,0.000,0.000,0.0,0,93.0,3
236845,228343,--,0.000,0.000,0.000,0.0,0,93.0,3
236890,228359,--,0.000,0.000,0.000,0.0,0,93.0,3
236912,228373,--,0.000,0.000,0.000,0.0,0,93.0,3
236948,228384,--,0.000,0.000,0.000,0.0,0,93.0,3
236952,228388,--,0.000,0.000,0.000,0.0,0,93.0,3
236970,228382,--,0.000,0.000,0.000,0.0,0,93.0,3
236981,228387,--,0.000,0.000,0.000,0.0,0,93.0,3
236977,228391,--,0.000,0.000,0.000,0.0,0,93.0,3
236996,228392,--,0.000,0.000,0.000,0.0,0,93.0,3
237025,228406,--,0.000,0.000,0.000,0.0,0,93.0,3
237048,228423,--,0.000,0.000,0.000,0.0,0,93.0,3
237082,228434,--,0.000,0.000,0.000,0.0,0,93.0,3
237105,228443,--,0.000,0.000,0.000,0.0,0,93.0,3
237124,228442,--,0.000,0.000,0.000,0.0,0,93.0,3
237028,228389,--,0.000,0.000,0.000,0.0,0,93.0,3
236794,228305,--,0.000,0.000,0.000,0.0,0,93.0,3
236511,228180,--,0.000,0.000,0.000,0.0,0,93.0,3
236321,228104,--,0.000,0.000,0.000,0.0,0,93.0,3
236220,228070,--,0.000,0.000,0.000,0.0,0,93.0,3
236209,228066,--,0.000,0.000,0.000,0.0,0,93.0,3
236257,228097,--,0.000,0.000,0.000,0.0,0,93.0,3
236303,228110,--,0.000,0.000,0.000,0.0,0,93.0,3
236352,228130,--,0.000,0.000,0.000,0.0,0,93.0,3
236376,228138,--,0.000,0.000,0.000,0.0,0,93.0,3
236389,228142,--,0.000,0.000,0.000,0.0,0,93.0,3
236392,228148,--,0.000,0.000,0.000,0.0,0,93.0,3
236417,228147,--,0.000,0.000,0.000,0.0,0,93.0,3
236445,228165,--,0.000,0.000,0.000,0.0,0,93.0,3
236472,228177,--,0.000,0.000,0.000,0.0,0,93.0,3
236483,228172,--,0.000,0.000,0.000,0.0,0,93.0,3
236470,228154,--,0.000,0.000,0.000,0.0,0,93.0,3
236478,228148,--,0.000,0.000,0.000,0.0,0,93.0,3
236468,228145,--,0.000,0.000,0.000,0.0,0,93.0,3
236455,228143,--,0.000,0.000,0.000,0.0,0,93.0,3
236462,228148,--,0.000,0.000,0.000,0.0,0,93.0,3
236493,228163,--,0.000,0.000,0.000,0.0,0,93.0,3
236524,228176,--,0.000,0.000,0.000,0.0,0,93.0,3
236545,228188,--,0.000,0.000,0.000,0.0,0,93.0,3
236582,228196,--,0.000,0.000,0.000,0.0,0,93.0,3
236644,228216,--,0.000,0.000,0.000,0.0,0,93.0,3
236696,228223,--,0.000,0.000,0.000,0.0,0,93.0,3
236749,228241,--,0.000,0.000,0.000,0.0,0,93.0,3
236772,228248,--,0.000,0.000,0.000,0.0,0,93.0,3
236794,228244,--,0.000,0.000,0.000,0.0,0,93.0,3
236780,228247,--,0.000,0.000,0.000,0.0,0,93.0,3
236783,228234,--,0.000,0.000,0.000,0.0,0,93.0,3
236784,228225,--,0.000,0.000,0.000,0.0,0,93.0,3
236781,228223,--,0.000,0.000,0.000,0.0,0,93.0,3
236794,228232,--,0.000,0.000,0.000,0.0,0,93.0,3
236807,228224,--,0.000,0.000,0.000,0.0,0,93.0,3
236829,228252,--,0.000,0.000,0.000,0.0,0,93.0,3
236842,228245,--,0.000,0.000,0.000,0.0,0,93.0,3
236862,228253,--,0.000,0.000,0.000,0.0,0,93.0,3
236863,228257,--,0.000,0.000,0.000,0.0,0,93.0,3
236877,228259,--,0.000,0.000,0.000,0.0,0,93.0,3
236903,228267,--,0.000,0.000,0.000,0.0,0,93.0,3
236944,228278,--,0.000,0.000,0.000,0.0,0,93.0,3
236956,228273,--,0.000,0.000,0.000,0.0,0,93.0,3
236972,228270,--,0.000,0.000,0.000,0.0,0,93.0,3
236999,228281,--,0.000,0.000,0.000,0.0,0,93.0,3
237025,228285,--,0.000,0.000,0.000,0.0,0,93.0,3
237030,228280,--,0.000,0.000,0.000,0.0,0,93.0,3
236985,228263,--,0.000,0.000,0.000,0.0,0,93.0,3
236802,228191,--,0.000,0.000,0.000,0.0,0,93.0,3
236510,228079,--,0.000,0.000,0.000,0.0,0,93.0,3
236260,227986,--,0.000,0.000,0.000,0.0,0,93.0,3
236124,227946,--,0.000,0.000,0.000,0.0,0,93.0,3
236085,227928,--,0.000,0.000,0.000,0.0,0,93.0,3
236131,227949,--,0.000,0.000,0.000,0.0,0,93.0,3
236200,227968,--,0.000,0.000,0.000,0.0,0,93.0,3
236273,228005,--,0.000,0.000,0.000,0.0,0,93.0,3
236317,228022,--,0.000,0.000,0.000,0.0,0,93.0,3
236350,228031,--,0.000,0.000,0.000,0.0,0,93.0,3
236352,228021,--,0.000,0.000,0.000,0.0,0,93.0,3
236365,228026,--,0.000,0.000,0.000,0.0,0,93.0,3
236397,228034,--,0.000,0.000,0.000,0.0,0,93.0,3
236428,228044,--,0.000,0.000,0.000,0.0,0,93.0,3
236460,228046,--,0.000,0.000,0.000,0.0,0,93.0,3
236443,228036,--,0.000,0.000,0.000,0.0,0,93.0,3
236425,228023,--,0.000,0.000,0.000,0.0,0,93.0,3
236407,228012,--,0.000,0.000,0.000,0.0,0,93.0,3
236417,228009,--,0.000,0.000,0.000,0.0,0,93.0,3
236428,228023,--,0.000,0.000,0.000,0.0,0,93.0,3
236454,228022,--,0.000,0.000,0.000,0.0,0,93.0,3
236491,228029,--,0.000,0.000,0.000,0.0,0,93.0,3
236519,228041,--,0.000,0.000,0.000,0.0,0,93.0,3
236565,228047,--,0.000,0.000,0.000,0.0,0,93.0,3
236608,228076,--,0.000,0.000,0.000,0.0,0,93.0,3
236655,228091,--,0.000,0.000,0.000,0.0,0,93.0,3
236699,228097,--,0.000,0.000,0.000,0.0,0,93.0,3
236717,228096,--,0.000,0.000,0.000,0.0,0,93.0,3
236736,228102,--,0.000,0.000,0.000,0.0,0,93.0,3
236757,228105,--,0.000,0.000,0.000,0.0,0,93.0,3
236776,228118,--,0.000,0.000,0.000,0.0,0,93.0,3
236793,228122,--,0.000,0.000,0.000,0.0,0,93.0,3
236794,228115,--,0.000,0.000,0.000,0.0,0,93.0,3
236816,228116,--,0.000,0.000,0.000,0.0,0,93.0,3
236838,228132,--,0.000,0.000,0.000,0.0,0,93.0,3
236834,228128,--,0.000,0.000,0.000,0.0,0,93.0,3
236858,228123,--,0.000,0.000,0.000,0.0,0,93.0,3
236879,228134,--,0.000,0.000,0.000,0.0,0,93.0,3
236903,228144,--,0.000,0.000,0.000,0.0,0,93.0,3
236929,228149,--,0.000,0.000,0.000,0.0,0,93.0,3
236953,228157,--,0.000,0.000,0.000,0.0,0,93.0,3
236957,228151,--,0.000,0.000,0.000,0.0,0,93.0,3
236996,228163,--,0.000,0.000,0.000,0.0,0,93.0,3
237033,228177,--,0.000,0.000,0.000,0.0,0,93.0,3
237086,228197,--,0.000,0.000,0.000,0.0,0,93.0,3
237115,228208,--,0.000,0.000,0.000,0.0,0,93.0,3
237091,228193,--,0.000,0.000,0.000,0.0,0,93.0,3
236917,228115,--,0.000,0.000,0.000,0.0,0,93.0,3
236631,227986,--,0.000,0.000,0.000,0.0,0,93.0,3
236384,227889,--,0.000,0.000,0.000,0.0,0,93.0,3
236238,227828,--,0.000,0.000,0.000,0.0,0,93.0,3
236198,227815,--,0.000,0.000,0.000,0.0,0,93.0,3
236230,227822,--,0.000,0.000,0.000,0.0,0,93.0,3
236301,227836,--,0.000,0.000,0.000,0.0,0,93.0,3
236364,227870,--,0.000,0.000,0.000,0.0,0,93.0,3
236427,227894,--,0.000,0.000,0.000,0.0,0,93.0,3
236447,227902,--,0.000,0.000,0.000,0.0,0,93.0,3
236479,227905,--,0.000,0.000,0.000,0.0,0,93.0,3
236517,227916,--,0.000,0.000,0.000,0.0,0,93.0,3
236544,227914,--,0.000,0.000,0.000,0.0,0,93.0,3
236584,227928,--,0.000,0.000,0.000,0.0,0,93.0,3
236614,227932,--,0.000,0.000,0.000,0.0,0,93.0,3
236615,227921,--,0.000,0.000,0.000,0.0,0,93.0,3
236595,227911,--,0.000,0.000,0.000,0.0,0,93.0,3
236571,227882,--,0.000,0.000,0.000,0.0,0,93.0,3
236564,227879,--,0.000,0.000,0.000,0.0,0,93.0,3
236566,227884,--,0.000,0.000,0.000,0.0,0,93.0,3
236581,227877,--,0.000,0.000,0.000,0.0,0,93.0,3
236615,227878,--,0.000,0.000,0.000,0.0,0,93.0,3
236643,227896,--,0.000,0.000,0.000,0.0,0,93.0,3
236691,227911,--,0.000,0.000,0.000,0.0,0,93.0,3
236751,227928,--,0.000,0.000,0.000,0.0,0,93.0,3
236801,227940,--,0.000,0.000,0.000,0.0,0,93.0,3
236835,227944,--,0.000,0.000,0.000,0.0,0,93.0,3
236885,227955,--,0.000,0.000,0.000,0.0,0,93.0,3
236971,227977,--,0.000,0.000,0.000,0.0,0,93.0,3
237076,227992,--,0.000,0.000,0.000,0.0,0,93.0,3
237174,228020,--,0.000,0.000,0.000,0.0,0,93.0,3
237222,228027,--,0.000,0.000,0.000,0.0,0,93.0,3
237235,228031,--,0.000,0.000,0.000,0.0,0,93.0,3
237242,228025,--,0.000,0.000,0.000,0.0,0,93.0,3
237231,228017,--,0.000,0.000,0.000,0.0,0,93.0,3
237239,228014,--,0.000,0.000,0.000,0.0,0,93.0,3
237264,228012,--,0.000,0.000,0.000,0.0,0,93.0,3
237286,228017,--,0.000,0.000,0.000,0.0,0,93.0,3
237304,228026,--,0.000,0.000,0.000,0.0,0,93.0,3
237320,228028,--,0.000,0.000,0.000,0.0,0,93.0,3
237339,228034,--,0.000,0.000,0.000,0.0,0,93.0,3
237371,228045,--,0.000,0.000,0.000,0.0,0,93.0,3
237414,228064,--,0.000,0.000,0.000,0.0,0,93.0,3
237464,228073,--,0.000,0.000,0.000,0.0,0,93.0,3
237419,228060,--,0.000,0.000,0.000,0.0,0,93.0,3
237103,227943,--,0.000,0.000,0.000,0.0,0,93.0,3
236679,227780,--,0.000,0.000,0.000,0.0,0,93.0,3
236413,227665,--,0.000,0.000,0.000,0.0,0,93.0,3
236291,227608,--,0.000,0.000,0.000,0.0,0,93.0,3
236277,227598,--,0.000,0.000,0.000,0.0,0,93.0,3
236334,227622,--,0.000,0.000,0.000,0.0,0,93.0,3
236418,227652,--,0.000,0.000,0.000,0.0,0,93.0,3
236501,227687,--,0.000,0.000,0.000,0.0,0,93.0,3
236577,227718,--,0.000,0.000,0.000,0.0,0,93.0,3
236623,227732,--,0.000,0.000,0.000,0.0,0,93.0,3
236666,227752,--,0.000,0.000,0.000,0.0,0,93.0,3
236703,227770,--,0.000,0.000,0.000,0.0,0,93.0,3
236746,227779,--,0.000,0.000,0.000,0.0,0,93.0,3
236775,227787,--,0.000,0.000,0.000,0.0,0,93.0,3
236752,227777,--,0.000,0.000,0.000,0.0,0,93.0,3
236721,227765,--,0.000,0.000,0.000,0.0,0,93.0,3
236670,227745,--,0.000,0.000,0.000,0.0,0,93.0,3
236647,227733,--,0.000,0.000,0.000,0.0,0,93.0,3
236644,227732,--,0.000,0.000,0.000,0.0,0,93.0,3
236664,227740,--,0.000,0.000,0.000,0.0,0,93.0,3
236688,227745,--,0.000,0.000,0.000,0.0,0,93.0,3
236749,227765,--,0.000,0.000,0.000,0.0,0,93.0,3
236791,227785,--,0.000,0.000,0.000,0.0,0,93.0,3
236820,227797,--,0.000,0.000,0.000,0.0,0,93.0,3
236862,227809,--,0.000,0.000,0.000,0.0,0,93.0,3
236914,227825,--,0.000,0.000,0.000,0.0,0,93.0,3
236939,227829,--,0.000,0.000,0.000,0.0,0,93.0,3
236964,227836,--,0.000,0.000,0.000,0.0,0,93.0,3
236983,227836,--,0.000,0.000,0.000,0.0,0,93.0,3
237013,227851,--,0.000,0.000,0.000,0.0,0,93.0,3
237018,227842,--,0.000,0.000,0.000,0.0,0,93.0,3
237031,227851,--,0.000,0.000,0.000,0.0,0,93.0,3
237031,227839,--,0.000,0.000,0.000,0.0,0,93.0,3
237028,227845,--,0.000,0.000,0.000,0.0,0,93.0,3
237049,227849,--,0.000,0.000,0.000,0.0,0,93.0,3
237065,227859,--,0.000,0.000,0.000,0.0,0,93.0,3
237093,227870,--,0.000,0.000,0.000,0.0,0,93.0,3
237132,227867,--,0.000,0.000,0.000,0.0,0,93.0,3
237190,227883,--,0.000,0.000,0.000,0.0,0,93.0,3
237237,227900,--,0.000,0.000,0.000,0.0,0,93.0,3
237256,227900,--,0.000,0.000,0.000,0.0,0,93.0,3
237194,227869,--,0.000,0.000,0.000,0.0,0,93.0,3
236930,227763,--,0.000,0.000,0.000,0.0,0,93.0,3
236613,227635,--,0.000,0.000,0.000,0.0,0,93.0,3
236380,227546,--,0.000,0.000,0.000,0.0,0,93.0,3
236253,227496,--,0.000,0.000,0.000,0.0,0,93.0,3
236228,227492,--,0.000,0.000,0.000,0.0,0,93.0,3
236254,227522,--,0.000,0.000,0.000,0.0,0,93.0,3
236326,227551,--,0.000,0.000,0.000,0.0,0,93.0,3
236406,227584,--,0.000,0.000,0.000,0.0,0,93.0,3
236461,227611,--,0.000,0.000,0.000,0.0,0,93.0,3
236495,227618,--,0.000,0.000,0.000,0.0,0,93.0,3
236515,227628,--,0.000,0.000,0.000,0.0,0,93.0,3
236552,227632,--,0.000,0.000,0.000,0.0,0,93.0,3
236603,227658,--,0.000,0.000,0.000,0.0,0,93.0,3
236636,227662,--,0.000,0.000,0.000,0.0,0,93.0,3
236636,227666,--,0.000,0.000,0.000,0.0,0,93.0,3
236618,227651,--,0.000,0.000,0.000,0.0,0,93.0,3
236600,227645,--,0.000,0.000,0.000,0.0,0,93.0,3
236583,227638,--,0.000,0.000,0.000,0.0,0,93.0,3
236577,227635,--,0.000,0.000,0.000,0.0,0,93.0,3
236593,227642,--,0.000,0.000,0.000,0.0,0,93.0,3
236604,227652,--,0.000,0.000,0.000,0.0,0,93.0,3
236620,227663,--,0.000,0.000,0.000,0.0,0,93.0,3
236662,227675,--,0.000,0.000,0.000,0.0,0,93.0,3
236698,227687,--,0.000,0.000,0.000,0.0,0,93.0,3
236748,227693,--,0.000,0.000,0.000,0.0,0,93.0,3
236798,227713,--,0.000,0.000,0.000,0.0,0,93.0,3
236837,227725,--,0.000,0.000,0.000,0.0,0,93.0,3
236855,227739,--,0.000,0.000,0.000,0.0,0,93.0,3
236872,227729,--,0.000,0.000,0.000,0.0,0,93.0,3
236900,227741,--,0.000,0.000,0.000,0.0,0,93.0,3
236935,227746,--,0.000,0.000,0.000,0.0,0,93.0,3
236947,227743,--,0.000,0.000,0.000,0.0,0,93.0,3
236944,227739,--,0.000,0.000,0.000,0.0,0,93.0,3
236946,227735,--,0.000,0.000,0.000,0.0,0,93.0,3
236963,227736,--,0.000,0.000,0.000,0.0,0,93.0,3
236988,227750,--,0.000,0.000,0.000,0.0,0,93.0,3
237004,227758,--,0.000,0.000,0.000,0.0,0,93.0,3
237035,227769,--,0.000,0.000,0.000,0.0,0,93.0,3
237064,227780,--,0.000,0.000,0.000,0.0,0,93.0,3
237070,227784,--,0.000,0.000,0.000,0.0,0,93.0,3
237020,227767,--,0.000,0.000,0.000,0.0,0,93.0,3
236839,227677,--,0.000,0.000,0.000,0.0,0,93.0,3
236569,227565,--,0.000,0.000,0.000,0.0,0,93.0,3
236363,227479,--,0.000,0.000,0.000,0.0,0,93.0,3
236239,227437,--,0.000,0.000,0.000,0.0,0,93.0,3
236205,227432,--,0.000,0.000,0.000,0.0,0,93.0,3
236250,227447,--,0.000,0.000,0.000,0.0,0,93.0,3
236317,227474,--,0.000,0.000,0.000,0.0,0,93.0,3
236360,227498,--,0.000,0.000,0.000,0.0,0,93.0,3
236415,227509,--,0.000,0.000,0.000,0.0,0,93.0,3
236442,227525,--,0.000,0.000,0.000,0.0,0,93.0,3
236444,227522,--,0.000,0.000,0.000,0.0,0,93.0,3
236489,227534,--,0.000,0.000,0.000,0.0,0,93.0,3
236520,227541,--,0.000,0.000,0.000,0.0,0,93.0,3
236534,227549,--,0.000,0.000,0.000,0.0,0,93.0,3
236527,227556,--,0.000,0.000,0.000,0.0,0,93.0,3
236523,227561,--,0.000,0.000,0.000,0.0,0,93.0,3
236516,227553,--,0.000,0.000,0.000,0.0,0,93.0,3
236479,227546,--,0.000,0.000,0.000,0.0,0,93.0,3
236470,227545,--,0.000,0.000,0.000,0.0,0,93.0,3
236484,227556,--,0.000,0.000,0.000,0.0,0,93.0,3
236515,227562,--,0.000,0.000,0.000,0.0,0,93.0,3
236551,227593,--,0.000,0.000,0.000,0.0,0,93.0,3
236588,227605,--,0.000,0.000,0.000,0.0,0,93.0,3
236607,227619,--,0.000,0.000,0.000,0.0,0,93.0,3
236644,227621,--,0.000,0.000,0.000,0.0,0,93.0,3
236671,227626,--,0.000,0.000,0.000,0.0,0,93.0,3
236693,227641,--,0.000,0.000,0.000,0.0,0,93.0,3
236721,227646,--,0.000,0.000,0.000,0.0,0,93.0,3
236752,227653,--,0.000,0.000,0.000,0.0,0,93.0,3
236775,227659,--,0.000,0.000,0.000,0.0,0,93.0,3
236786,227661,--,0.000,0.000,0.000,0.0,0,93.0,3
236789,227652,--,0.000,0.000,0.000,0.0,0,93.0,3
236805,227660,--,0.000,0.000,0.000,0.0,0,93.0,3
236808,227661,--,0.000,0.000,0.000,0.0,0,93.0,3
236819,227662,--,0.000,0.000,0.000,0.0,0,93.0,3
236828,227674,--,0.000,0.000,0.000,0.0,0,93.0,3
236846,227682,--,0.000,0.000,0.000,0.0,0,93.0,3
236876,227686,--,0.000,0.000,0.000,0.0,0,93.0,3
236910,227694,--,0.000,0.000,0.000,0.0,0,93.0,3
236936,227714,--,0.000,0.000,0.000,0.0,0,93.0,3
236920,227699,--,0.000,0.000,0.000,0.0,0,93.0,3
236784,227650,--,0.000,0.000,0.000,0.0,0,93.0,3
236550,227549,--,0.000,0.000,0.000,0.0,0,93.0,3
236335,227461,--,0.000,0.000,0.000,0.0,0,93.0,3
236203,227407,--,0.000,0.000,0.000,0.0,0,93.0,3
236154,227385,--,0.000,0.000,0.000,0.0,0,93.0,3
236188,227399,--,0.000,0.000,0.000,0.0,0,93.0,3
236233,227412,--,0.000,0.000,0.000,0.0,0,93.0,3
236295,227440,--,0.000,0.000,0.000,0.0,0,93.0,3
236340,227452,--,0.000,0.000,0.000,0.0,0,93.0,3
236379,227465,--,0.000,0.000,0.000,0.0,0,93.0,3
236402,227473,--,0.000,0.000,0.000,0.0,0,93.0,3
236422,227480,--,0.000,0.000,0.000,0.0,0,93.0,3
236452,227496,--,0.000,0.000,0.000,0.0,0,93.0,3
236465,227500,--,0.000,0.000,0.000,0.0,0,93.0,3
236474,227499,--,0.000,0.000,0.000,0.0,0,93.0,3
236465,227508,--,0.000,0.000,0.000,0.0,0,93.0,3
236442,227506,--,0.000,0.000,0.000,0.0,0,93.0,3
236438,227505,--,0.000,0.000,0.000,0.0,0,93.0,3
236433,227506,--,0.000,0.000,0.000,0.0,0,93.0,3
236446,227498,--,0.000,0.000,0.000,0.0,0,93.0,3
236476,227502,--,0.000,0.000,0.000,0.0,0,93.0,3
236512,227518,--,0.000,0.000,0.000,0.0,0,93.0,3
236544,227531,--,0.000,0.000,0.000,0.0,0,93.0,3
236574,227543,--,0.000,0.000,0.000,0.0,0,93.0,3
236611,227554,--,0.000,0.000,0.000,0.0,0,93.0,3
236632,227574,--,0.000,0.000,0.000,0.0,0,93.0,3
236670,227580,--,0.000,0.000,0.000,0.0,0,93.0,3
236698,227583,--,0.000,0.000,0.000,0.0,0,93.0,3
236719,227585,--,0.000,0.000,0.000,0.0,0,93.0,3
236730,227595,--,0.000,0.000,0.000,0.0,0,93.0,3
236749,227590,--,0.000,0.000,0.000,0.0,0,93.0,3
236765,227602,--,0.000,0.000,0.000,0.0,0,93.0,3
236761,227593,--,0.000,0.000,0.000,0.0,0,93.0,3
236783,227593,--,0.000,0.000,0.000,0.0,0,93.0,3
236787,227589,--,0.000,0.000,0.000,0.0,0,93.0,3
236801,227598,--,0.000,0.000,0.000,0.0,0,93.0,3
236821,227604,--,0.000,0.000,0.000,0.0,0,93.0,3
236833,227604,--,0.000,0.000,0.000,0.0,0,93.0,3
236860,227616,--,0.000,0.000,0.000,0.0,0,93.0,3
236916,227632,--,0.000,0.000,0.000,0.0,0,93.0,3
236938,227641,--,0.000,0.000,0.000,0.0,0,93.0,3
236933,227629,--,0.000,0.000,0.000,0.0,0,93.0,3
236802,227571,--,0.000,0.000,0.000,0.0,0,93.0,3
236545,227464,--,0.000,0.000,0.000,0.0,0,93.0,3
236304,227370,--,0.000,0.000,0.000,0.0,0,93.0,3
236160,227317,--,0.000,0.000,0.000,0.0,0,93.0,3
236121,227299,--,0.000,0.000,0.000,0.0,0,93.0,3
236156,227311,--,0.000,0.000,0.000,0.0,0,93.0,3
236217,227338,--,0.000,0.000,0.000,0.0,0,93.0,3
236285,227371,--,0.000,0.000,0.000,0.0,0,93.0,3
236342,227388,--,0.000,0.000,0.000,0.0,0,93.0,3
236360,227402,--,0.000,0.000,0.000,0.0,0,93.0,3
236386,227408,--,0.000,0.000,0.000,0.0,0,93.0,3
236422,227409,--,0.000,0.000,0.000,0.0,0,93.0,3
236457,227420,--,0.000,0.000,0.000,0.0,0,93.0,3
236490,227438,--,0.000,0.000,0.000,0.0,0,93.0,3
236486,227434,--,0.000,0.000,0.000,0.0,0,93.0,3
236472,227425,--,0.000,0.000,0.000,0.0,0,93.0,3
236451,227415,--,0.000,0.000,0.000,0.0,0,93.0,3
236418,227400,--,0.000,0.000,0.000,0.0,0,93.0,3
236429,227404,--,0.000,0.000,0.000,0.0,0,93.0,3
236423,227411,--,0.000,0.000,0.000,0.0,0,93.0,3
236461,227417,--,0.000,0.000,0.000,0.0,0,93.0,3
236493,227434,--,0.000,0.000,0.000,0.0,0,93.0,3
236518,227445,--,0.000,0.000,0.000,0.0,0,93.0,3
236548,227456,--,0.000,0.000,0.000,0.0,0,93.0,3
236587,227464,--,0.000,0.000,0.000,0.0,0,93.0,3
236625,227474,--,0.000,0.000,0.000,0.0,0,93.0,3
236642,227493,--,0.000,0.000,0.000,0.0,0,93.0,3
236666,227495,--,0.000,0.000,0.000,0.0,0,93.0,3
236687,227499,--,0.000,0.000,0.000,0.0,0,93.0,3
236694,227498,--,0.000,0.000,0.000,0.0,0,93.0,3
236712,227495,--,0.000,0.000,0.000,0.0,0,93.0,3
236737,227499,--,0.000,0.000,0.000,0.0,0,93.0,3
236736,227504,--,0.000,0.000,0.000,0.0,0,93.0,3
236728,227507,--,0.000,0.000,0.000,0.0,0,93.0,3
236735,227495,--,0.000,0.000,0.000,0.0,0,93.0,3
236759,227512,--,0.000,0.000,0.000,0.0,0,93.0,3
236792,227517,--,0.000,0.000,0.000,0.0,0,93.0,3
236814,227524,--,0.000,0.000,0.000,0.0,0,93.0,3
236844,227534,--,0.000,0.000,0.000,0.0,0,93.0,3
236878,227551,--,0.000,0.000,0.000,0.0,0,93.0,3
236924,227566,--,0.000,0.000,0.000,0.0,0,93.0,3
236945,227562,--,0.000,0.000,0.000,0.0,0,93.0,3
236899,227545,--,0.000,0.000,0.000,0.0,0,93.0,3
236729,227481,--,0.000,0.000,0.000,0.0,0,93.0,3
236480,227379,--,0.000,0.000,0.000,0.0,0,93.0,3
236271,227294,--,0.000,0.000,0.000,0.0,0,93.0,3
236165,227261,--,0.000,0.000,0.000,0.0,0,93.0,3
236141,227253,--,0.000,0.000,0.000,0.0,0,93.0,3
236186,227263,--,0.000,0.000,0.000,0.0,0,93.0,3
236254,227290,--,0.000,0.000,0.000,0.0,0,93.0,3
236321,227317,--,0.000,0.000,0.000,0.0,0,93.0,3
236365,227332,--,0.000,0.000,0.000,0.0,0,93.0,3
236374,227334,--,0.000,0.000,0.000,0.0,0,93.0,3
236382,227334,--,0.000,0.000,0.000,0.0,0,93.0,3
236410,227339,--,0.000,0.000,0.000,0.0,0,93.0,3
236447,227355,--,0.000,0.000,0.000,0.0,0,93.0,3
236468,227368,--,0.000,0.000,0.000,0.0,0,93.0,3
236444,227358,--,0.000,0.000,0.000,0.0,0,93.0,3
236423,227348,--,0.000,0.000,0.000,0.0,0,93.0,3
236412,227343,--,0.000,0.000,0.000,0.0,0,93.0,3
236399,227339,--,0.000,0.000,0.000,0.0,0,93.0,3
236409,227344,--,0.000,0.000,0.000,0.0,0,93.0,3
236435,227356,--,0.000,0.000,0.000,0.0,0,0.0,3
236456,227360,--,0.000,0.000,0.000,0.0,0,0.0,3
236485,227370,--,0.000,0.000,0.000,0.0,0,0.0,3
236519,227396,--,0.000,0.000,0.000,0.0,0,0.0,3
236546,227407,--,0.000,0.000,0.000,0.0,0,0.0,3
236577,227419,--,0.000,0.000,0.000,0.0,0,0.0,3
236615,227433,--,0.000,0.000,0.000,0.0,0,0.0,3
236640,227442,--,0.000,0.000,0.000,0.0,0,0.0,3
236661,227445,--,0.000,0.000,0.000,0.0,0,0.0,3
236690,227468,--,0.000,0.000,0.000,0.0,0,0.0,3
236712,227471,--,0.000,0.000,0.000,0.0,0,0.0,3
236733,227471,--,0.000,0.000,0.000,0.0,0,0.0,3
236754,227479,--,0.000,0.000,0.000,0.0,0,0.0,3
236762,227474,--,0.000,0.000,0.000,0.0,0,0.0,3
236769,227483,--,0.000,0.000,0.000,0.0,0,0.0,3
236772,227484,--,0.000,0.000,0.000,0.0,0,0.0,3
236794,227487,--,0.000,0.000,0.000,0.0,0,0.0,3
236798,227498,--,0.000,0.000,0.000,0.0,0,0.0,3
236837,227512,--,0.000,0.000,0.000,0.0,0,0.0,3
236870,227522,--,0.000,0.000,0.000,0.0,0,0.0,3
236901,227532,--,0.000,0.000,0.000,0.0,0,0.0,3
236932,227546,--,0.000,0.000,0.000,0.0,0,0.0,3
236941,227551,--,0.000,0.000,0.000,0.0,0,0.0,3
236901,227536,--,0.000,0.000,0.000,0.0,0,0.0,3
236721,227446,--,0.000,0.000,0.000,0.0,0,0.0,3
236471,227345,--,0.000,0.000,0.000,0.0,0,0.0,3
236264,227262,--,0.000,0.000,0.000,0.0,0,0.0,3
236137,227208,--,0.000,0.000,0.000,0.0,0,0.0,3
236106,227206,--,0.000,0.000,0.000,0.0,0,0.0,3
236143,227222,--,0.000,0.000,0.000,0.0,0,0.0,3
236199,227249,--,0.000,0.000,0.000,0.0,0,0.0,3
236261,227273,--,0.000,0.000,0.000,0.0,0,0.0,3
236309,227290,--,0.000,0.000,0.000,0.0,0,0.0,3
236324,227299,--,0.000,0.000,0.000,0.0,0,0.0,3
236335,227302,--,0.000,0.000,0.000,0.0,0,0.0,3
236350,227299,--,0.000,0.000,0.000,0.0,0,0.0,3
236390,227318,--,0.000,0.000,0.000,0.0,0,0.0,3
236418,227328,--,0.000,0.000,0.000,0.0,0,0.0,3
236425,227337,--,0.000,0.000,0.000,0.0,0,0.0,3
236417,227328,--,0.000,0.000,0.000,0.0,0,0.0,3
236396,227316,--,0.000,0.000,0.000,0.0,0,0.0,3
236377,227317,--,0.000,0.000,0.000,0.0,0,0.0,3
236378,227308,--,0.000,0.000,0.000,0.0,0,0.0,3
236392,227314,--,0.000,0.000,0.000,0.0,0,0.0,3
236417,227329,--,0.000,0.000,0.000,0.0,0,0.0,3
236442,227337,--,0.000,0.000,0.000,0.0,0,0.0,3
236466,227345,--,0.000,0.000,0.000,0.0,0,0.0,3
236507,227365,--,0.000,0.000,0.000,0.0,0,0.0,3
236534,227370,--,0.000,0.000,0.000,136.2,50,0.0,3
236562,227375,--,0.000,0.000,0.000,136.2,50,0.0,3
236589,227387,--,0.000,0.000,0.000,136.2,50,0.0,3
236618,227392,--,0.000,0.000,0.000,136.2,50,0.0,3
236635,227391,--,0.000,0.000,0.000,136.2,50,0.0,3
236652,227402,--,0.000,0.000,0.000,136.2,50,0.0,3
236674,227401,--,0.000,0.000,0.000,136.2,50,0.0,3
236676,227410,--,0.000,0.000,0.000,136.2,50,0.0,3
236683,227419,--,0.000,0.000,0.000,136.2,50,0.0,3
236693,227421,--,0.000,0.000,0.000,136.2,50,0.0,3
236711,227419,--,0.000,0.000,0.000,136.2,50,0.0,3
236727,227425,--,0.000,0.000,0.000,136.2,50,0.0,3
236742,227425,--,0.000,0.000,0.000,136.2,50,0.0,3
236751,227436,--,0.000,0.000,0.000,136.2,50,0.0,3
236780,227436,--,0.000,0.000,0.000,136.2,50,0.0,3
236806,227457,--,0.000,0.000,0.000,136.2,50,0.0,3
236838,227470,--,0.000,0.000,0.000,136.2,50,0.0,3
236863,227471,--,0.000,0.000,0.000,136.2,50,0.0,3
236897,227484,--,0.000,0.000,0.000,136.2,50,0.0,3
236909,227489,--,0.000,0.000,0.000,136.2,50,0.0,3
236839,227464,--,0.000,0.000,0.000,136.2,50,0.0,3
236632,227376,--,0.000,0.000,0.000,136.2,50,0.0,3
236375,227285,--,0.000,0.000,0.000,136.2,50,0.0,3
236184,227201,--,0.000,0.000,0.000,136.2,50,0.0,3
236066,227145,--,0.000,0.000,0.000,136.2,50,0.0,3
236041,227151,--,0.000,0.000,0.000,136.2,50,0.0,3
236074,227171,--,0.000,0.000,0.000,136.2,50,0.0,3
236123,227201,--,0.000,0.000,0.000,136.2,50,0.0,3
236181,227227,--,0.000,0.000,0.000,136.2,50,0.0,3
236223,227239,--,0.000,0.000,0.000,136.2,50,0.0,3
236229,227235,--,0.000,0.000,0.000,136.2,50,0.0,3
236238,227234,--,0.000,0.000,0.000,136.2,50,0.0,3
236259,227245,--,0.000,0.000,0.000,136.2,50,0.0,3
236290,227260,--,0.000,0.000,0.000,136.2,50,0.0,3
236300,227269,--,0.000,0.000,0.000,136.2,50,0.0,3
236292,227266,--,0.000,0.000,0.000,136.2,50,0.0,3
236304,227263,--,0.000,0.000,0.000,136.2,50,0.0,3
236290,227259,--,0.000,0.000,0.000,136.2,50,0.0,3
236277,227244,--,0.000,0.000,0.000,136.2,50,0.0,3
236285,227257,--,0.000,0.000,0.000,136.2,50,0.0,3
236294,227247,--,0.000,0.000,0.000,136.2,50,0.0,3
236319,227257,--,0.000,0.000,0.000,136.2,50,0.0,3
236359,227268,--,0.000,0.000,0.000,136.2,50,0.0,3
236381,227287,--,0.000,0.000,0.000,136.2,50,0.0,3
236407,227300,--,0.000,0.000,0.000,136.2,50,0.0,3
236452,227309,--,0.000,0.000,0.000,136.2,50,0.0,3
236484,227314,--,0.000,0.000,0.000,136.2,50,0.0,3
236502,227317,--,0.000,0.000,0.000,136.2,50,0.0,3
236532,227319,--,0.000,0.000,0.000,136.2,50,0.0,3
236551,227338,--,0.000,0.000,0.000,136.2,50,0.0,3
236562,227341,--,0.000,0.000,0.000,136.2,50,0.0,3
236574,227341,--,0.000,0.000,0.000,136.2,50,0.0,3
236568,227335,--,0.000,0.000,0.000,136.2,50,0.0,3
236597,227348,--,0.000,0.000,0.000,136.2,50,0.0,3
236616,227352,--,0.000,0.000,0.000,136.2,50,0.0,3
236617,227354,--,0.000,0.000,0.000,136.2,50,0.0,3
236615,227363,--,0.000,0.000,0.000,136.2,50,0.0,3
236626,227365,--,0.000,0.000,0.000,136.2,50,0.0,3
236631,227373,--,0.000,0.000,0.000,136.2,50,0.0,3
236658,227369,--,0.000,0.000,0.000,136.2,50,0.0,3
236677,227381,--,0.000,0.000,0.000,136.2,50,0.0,3
236706,227388,--,0.000,0.000,0.000,136.2,50,0.0,3
236741,227400,--,0.000,0.000,0.000,136.2,50,0.0,3
236770,227408,--,0.000,0.000,0.000,136.2,50,0.0,3
236790,227421,--,0.000,0.000,0.000,136.2,50,0.0,3
236816,227428,--,0.000,0.000,0.000,136.2,50,0.0,3
236778,227404,--,0.000,0.000,0.000,136.2,50,0.0,3
236586,227324,--,0.000,0.000,0.000,136.2,50,0.0,3
236329,227224,--,0.000,0.000,0.000,136.2,50,0.0,3
236126,227147,--,0.000,0.000,0.000,136.2,50,0.0,3
236022,227108,--,0.000,0.000,0.000,136.2,50,0.0,3
236009,227105,--,0.000,0.000,0.000,136.2,50,0.0,3
236041,227128,--,0.000,0.000,0.000,136.2,50,0.0,3
236101,227153,--,0.000,0.000,0.000,136.2,50,0.0,3
236151,227170,--,0.000,0.000,0.000,136.2,50,0.0,3
236179,227179,--,0.000,0.000,0.000,136.2,50,0.0,3
236196,227194,--,0.000,0.000,0.000,136.2,50,0.0,3
236219,227197,--,0.000,0.000,0.000,136.2,50,0.0,3
236247,227195,--,0.000,0.000,0.000,136.2,50,0.0,3
236281,227210,--,0.000,0.000,0.000,136.2,50,0.0,3
236317,227228,--,0.000,0.000,0.000,136.2,50,0.0,3
236313,227219,--,0.000,0.000,0.000,136.2,50,0.0,3
236292,227220,--,0.000,0.000,0.000,136.2,50,0.0,3
236271,227215,--,0.000,0.000,0.000,136.2,50,0.0,3
236269,227210,--,0.000,0.000,0.000,136.2,50,0.0,3
236265,227211,--,0.000,0.000,0.000,136.2,50,0.0,3
236270,227218,--,0.000,0.000,0.000,136.2,50,0.0,3
236302,227236,--,0.000,0.000,0.000,136.2,50,98.6,3
236322,227250,--,0.000,0.000,0.000,136.2,50,98.6,3
236372,227260,--,0.000,0.000,0.000,136.2,50,98.6,3
236404,227273,--,0.000,0.000,0.000,136.2,50,98.6,3
236415,227280,--,0.000,0.000,0.000,136.2,50,98.6,3
236434,227286,--,0.000,0.000,0.000,136.2,50,98.6,3
236470,227289,--,0.000,0.000,0.000,136.2,50,98.6,3
236484,227298,--,0.000,0.000,0.000,136.2,50,98.6,3
236513,227315,--,0.000,0.000,0.000,136.2,50,98.6,3
236517,227309,--,0.000,0.000,0.000,136.2,50,98.6,3
236533,227320,--,0.000,0.000,0.000,136.2,50,98.6,3
236529,227324,--,0.000,0.000,0.000,136.2,50,98.6,3
236547,227327,--,0.000,0.000,0.000,136.2,50,98.6,3
236558,227323,--,0.000,0.000,0.000,136.2,50,98.6,3
236570,227326,--,0.000,0.000,0.000,136.2,50,98.6,3
236572,227327,--,0.000,0.000,0.000,136.2,50,98.6,3
236595,227328,--,0.000,0.000,0.000,136.2,50,98.6,3
236607,227334,--,0.000,0.000,0.000,136.2,50,98.6,3
236609,227339,--,0.000,0.000,0.000,136.2,50,98.6,3
236640,227337,--,0.000,0.000,0.000,136.2,50,98.6,3
236662,227349,--,0.000,0.000,0.000,136.2,50,98.6,3
236695,227354,--,0.000,0.000,0.000,136.2,50,98.6,3
236717,227368,--,0.000,0.000,0.000,136.2,50,98.6,3
236743,227389,--,0.000,0.000,0.000,136.2,50,98.6,3
236753,227396,--,0.000,0.000,0.000,136.2,50,98.6,3
236756,227398,--,0.000,0.000,0.000,136.2,50,98.6,3
236688,227361,--,0.000,0.000,0.000,136.2,50,98.6,3
236502,227278,--,0.000,0.000,0.000,136.2,50,98.6,3
236264,227172,--,0.000,0.000,0.000,136.2,50,98.6,3
236064,227090,--,0.000,0.000,0.000,136.2,50,98.6,3
235946,227045,--,0.000,0.000,0.000,136.2,50,98.6,3
235922,227040,--,0.000,0.000,0.000,136.2,50,98.6,3
235952,227046,--,0.000,0.000,0.000,136.2,50,98.6,3
236019,227076,--,0.000,0.000,0.000,136.2,50,98.6,3
236073,227102,--,0.000,0.000,0.000,136.2,50,98.6,3
236122,227129,--,0.000,0.000,0.000,136.2,50,98.6,3
236138,227128,--,0.000,0.000,0.000,136.2,50,98.6,3
236137,227125,--,0.000,0.000,0.000,136.2,50,98.6,3
236170,227135,--,0.000,0.000,0.000,136.2,50,98.6,3
236204,227141,--,0.000,0.000,0.000,136.2,50,98.6,3
236228,227149,--,0.000,0.000,0.000,136.2,50,98.6,3
236232,227162,--,0.000,0.000,0.000,136.2,50,98.6,3
236204,227150,--,0.000,0.000,0.000,136.2,50,98.6,3
236184,227150,--,0.000,0.000,0.000,134.4,100,98.6,3
236167,227151,--,0.000,0.000,0.000,134.4,100,98.6,3
236174,227148,--,0.000,0.000,0.000,134.4,100,98.6,3
236188,227154,--,0.000,0.000,0.000,134.4,100,98.6,3
236214,227148,--,0.000,0.000,0.000,134.4,100,98.6,3
236234,227159,--,0.000,0.000,0.000,134.4,100,98.6,3
236282,227177,--,0.000,0.000,0.000,134.4,100,98.6,3
236312,227181,--,0.000,0.000,0.000,134.4,100,98.6,3
236352,227200,--,0.000,0.000,0.000,134.4,100,98.6,3
236377,227202,--,0.000,0.000,0.000,134.4,100,98.6,3
236413,227213,--,0.000,0.000,0.000,134.4,100,98.6,3
236427,227215,--,0.000,0.000,0.000,134.4,100,98.6,3
236433,227217,--,0.000,0.000,0.000,134.4,100,98.6,3
236468,227227,--,0.000,0.000,0.000,134.4,100,98.6,3
236495,227229,--,0.000,0.000,0.000,134.4,100,98.6,3
236518,227238,--,0.000,0.000,0.000,134.4,100,98.6,3
236536,227233,--,0.000,0.000,0.000,134.4,100,98.6,3
236537,227238,--,0.000,0.000,0.000,134.4,100,98.6,3
236563,227244,--,0.000,0.000,0.000,134.4,100,98.6,3
236585,227246,--,0.000,0.000,0.000,134.4,100,98.6,3
236604,227245,--,0.000,0.000,0.000,134.4,100,98.6,3
236622,227254,--,0.000,0.000,0.000,134.4,100,98.6,3
236629,227262,--,0.000,0.000,0.000,134.4,100,98.6,3
236659,227272,--,0.000,0.000,0.000,134.4,100,98.6,3
236677,227286,--,0.000,0.000,0.000,134.4,100,98.6,3
236718,227301,--,0.000,0.000,0.000,134.4,100,98.6,3
236752,227312,--,0.000,0.000,0.000,134.4,100,98.6,3
236797,227329,--,0.000,0.000,0.000,134.4,100,98.6,3
236849,227347,--,0.000,0.000,0.000,134.4,100,98.6,3
236872,227353,--,0.000,0.000,0.000,134.4,100,98.6,3
236823,227320,--,0.000,0.000,0.000,134.4,100,98.6,3
236634,227243,--,0.000,0.000,0.000,134.4,100,98.6,3
236364,227130,--,0.000,0.000,0.000,134.4,100,98.6,3
236145,227040,--,0.000,0.000,0.000,134.4,100,98.6,3
236013,226983,--,0.000,0.000,0.000,134.4,100,98.6,3
235988,226982,--,0.000,0.000,0.000,134.4,100,98.6,3
236020,227007,--,0.000,0.000,0.000,134.4,100,98.6,3
236081,227035,--,0.000,0.000,0.000,134.4,100,98.6,3
236156,227056,--,0.000,0.000,0.000,134.4,100,98.6,3
236243,227086,--,0.000,0.000,0.000,134.4,100,98.6,3
236280,227099,--,0.000,0.000,0.000,134.4,100,98.6,3
236286,227105,--,0.000,0.000,0.000,134.4,100,98.6,3
236322,227108,--,0.000,0.000,0.000,134.4,100,98.6,3
236340,227125,--,0.000,0.000,0.000,134.4,100,98.6,3
236359,227135,--,0.000,0.000,0.000,134.4,100,98.6,3
236358,227129,--,0.000,0.000,0.000,134.4,100,98.6,3
236332,227113,--,0.000,0.000,0.000,134.4,100,98.6,3
236298,227094,--,0.000,0.000,0.000,134.4,100,98.6,3
236269,227093,--,0.000,0.000,0.000,134.4,100,98.6,3
236268,227089,--,0.000,0.000,0.000,134.4,100,98.6,3
236289,227102,--,0.000,0.000,0.000,134.4,100,98.6,3
236322,227113,--,0.000,0.000,0.000,134.4,100,98.6,3
236353,227120,--,0.000,0.000,0.000,134.4,100,98.2,3
236391,227138,--,0.000,0.000,0.000,134.4,100,98.2,3
236415,227164,--,0.000,0.000,0.000,134.4,100,98.2,3
236450,227188,--,0.000,0.000,0.000,134.4,100,98.2,3
236489,227196,--,0.000,0.000,0.000,134.4,100,98.2,3
236515,227203,--,0.000,0.000,0.000,134.4,100,98.2,3
236547,227202,--,0.000,0.000,0.000,134.4,100,98.2,3
236576,227208,--,0.000,0.000,0.000,134.4,100,98.2,3
236589,227215,--,0.000,0.000,0.000,134.4,100,98.2,3
236618,227213,--,0.000,0.000,0.000,134.4,100,98.2,3
236629,227227,--,0.000,0.000,0.000,134.4,100,98.2,3
236647,227232,--,0.000,0.000,0.000,134.4,100,98.2,3
236658,227235,--,0.000,0.000,0.000,134.4,100,98.2,3
236658,227227,--,0.000,0.000,0.000,134.4,100,98.2,3
236664,227236,--,0.000,0.000,0.000,134.4,100,98.2,3
236674,227238,--,0.000,0.000,0.000,134.4,100,98.2,3
236689,227235,--,0.000,0.000,0.000,134.4,100,98.2,3
236719,227256,--,0.000,0.000,0.000,134.4,100,98.2,3
236752,227254,--,0.000,0.000,0.000,134.4,100,98.2,3
236791,227261,--,0.000,0.000,0.000,134.4,100,98.2,3
236840,227274,--,0.000,0.000,0.000,134.4,100,98.2,3
236881,227293,--,0.000,0.000,0.000,134.4,100,98.2,3
236898,227303,--,0.000,0.000,0.000,134.4,100,98.2,3
236831,227282,--,0.000,0.000,0.000,134.4,100,98.2,3
236623,227194,--,0.000,0.000,0.000,134.4,100,98.2,3
236330,227074,--,0.000,0.000,0.000,134.4,100,98.2,3
236105,226990,--,0.000,0.000,0.000,134.4,100,98.2,3
235960,226932,--,0.000,0.000,0.000,134.4,100,98.2,3
235920,226919,--,0.000,0.000,0.000,134.4,100,98.2,3
235941,226935,--,0.000,0.000,0.000,134.4,100,98.2,3
236003,226958,--,0.000,0.000,0.000,134.4,100,98.2,3
236057,226986,--,0.000,0.000,0.000,134.4,100,98.2,3
236106,227005,--,0.000,0.000,0.000,134.4,100,98.2,3
236131,227003,--,0.000,0.000,0.000,134.4,100,98.2,3
236145,227017,--,0.000,0.000,0.000,134.4,100,98.2,3
236164,227020,--,0.000,0.000,0.000,134.4,100,98.2,3
236190,227035,--,0.000,0.000,0.000,134.4,100,98.2,3
236215,227037,--,0.000,0.000,0.000,134.4,100,98.2,3
236227,227038,--,0.000,0.000,0.000,134.4,100,98.2,3
236223,227038,--,0.000,0.000,0.000,134.4,100,98.2,3
236198,227021,--,0.000,0.000,0.000,134.4,100,98.2,3
236185,227022,--,0.000,0.000,0.000,134.4,100,98.2,3
236177,227023,--,0.000,0.000,0.000,134.4,100,98.2,3
236184,227035,--,0.000,0.000,0.000,134.4,100,98.2,3
236211,227036,--,0.000,0.000,0.000,134.4,100,98.2,3
236247,227053,--,0.000,0.000,0.000,134.4,100,98.1,3
236293,227063,--,0.000,0.000,0.000,134.4,100,98.1,3
236320,227073,--,0.000,0.000,0.000,134.4,100,98.1,3
236347,227089,--,0.000,0.000,0.000,131.9,100,98.1,3
236373,227091,--,0.000,0.000,0.000,131.9,100,98.1,3
236414,227108,--,0.000,0.000,0.000,131.9,100,98.1,3
236435,227112,--,0.000,0.000,0.000,131.9,100,98.1,3
236460,227123,--,0.000,0.000,0.000,131.9,100,98.1,3
236486,227131,--,0.000,0.000,0.000,131.9,100,98.1,3
236490,227131,--,0.000,0.000,0.000,131.9,100,98.1,3
236502,227131,--,0.000,0.000,0.000,131.9,100,98.1,3
236519,227137,--,0.000,0.000,0.000,131.9,100,98.1,3
236514,227136,--,0.000,0.000,0.000,131.9,100,98.1,3
236517,227136,--,0.000,0.000,0.000,131.9,100,98.1,3
236545,227139,--,0.000,0.000,0.000,131.9,100,98.1,3
236565,227149,--,0.000,0.000,0.000,131.9,100,98.1,3
236589,227154,--,0.000,0.000,0.000,131.9,100,98.1,3
236608,227151,--,0.000,0.000,0.000,131.9,100,98.1,3
236625,227164,--,0.000,0.000,0.000,131.9,100,98.1,3
236656,227170,--,0.000,0.000,0.000,131.9,100,98.1,3
236685,227192,--,0.000,0.000,0.000,131.9,100,98.1,3
236713,227205,--,0.000,0.000,0.000,131.9,100,98.1,3
236732,227213,--,0.000,0.000,0.000,131.9,100,98.1,3
236640,227177,--,0.000,0.000,0.000,131.9,100,98.1,3
236401,227081,--,0.000,0.000,0.000,131.9,100,98.1,3
236153,226977,--,0.000,0.000,0.000,131.9,100,98.1,3
235952,226892,--,0.000,0.000,0.000,131.9,100,98.1,3
235845,226856,--,0.000,0.000,0.000,131.9,100,98.1,3
235826,226857,--,0.000,0.000,0.000,131.9,100,98.1,3
235874,226883,--,0.000,0.000,0.000,131.9,100,98.1,3
235937,226908,--,0.000,0.000,0.000,131.9,100,98.1,3
235998,226925,--,0.000,0.000,0.000,131.9,100,98.1,3
236028,226949,--,0.000,0.000,0.000,131.9,100,98.1,3
236032,226939,--,0.000,0.000,0.000,131.9,100,98.1,3
236041,226949,--,0.000,0.000,0.000,131.9,100,98.1,3
236070,226953,--,0.000,0.000,0.000,131.9,100,98.1,3
236103,226970,--,0.000,0.000,0.000,131.9,100,98.1,3
236143,226990,--,0.000,0.000,0.000,131.9,100,98.1,3
236134,226982,--,0.000,0.000,0.000,131.9,100,98.1,3
236123,226982,--,0.000,0.000,0.000,131.9,100,98.1,3
236123,226970,--,0.000,0.000,0.000,131.9,100,98.1,3
236132,226972,--,0.000,0.000,0.000,131.9,100,98.1,3
236129,226972,--,0.000,0.000,0.000,131.9,100,98.1,3
236152,226979,--,0.000,0.000,0.000,131.9,100,98.1,3
236187,226991,--,0.000,0.000,0.000,131.9,100,98.2,3
236220,226997,--,0.000,0.000,0.000,131.9,100,98.2,3
236242,227021,--,0.000,0.000,0.000,131.9,100,98.2,3
236288,227037,--,0.000,0.000,0.000,131.9,100,98.2,3
236344,227059,--,0.000,0.000,0.000,131.9,100,98.2,3
236391,227070,--,0.000,0.000,0.000,131.9,100,98.2,3
236447,227088,--,0.000,0.000,0.000,131.9,100,98.2,3
236475,227092,--,0.000,0.000,0.000,131.9,100,98.2,3
236490,227103,--,0.000,0.000,0.000,131.9,100,98.2,3
236518,227105,--,0.000,0.000,0.000,131.9,100,98.2,3
236527,227111,--,0.000,0.000,0.000,131.9,100,98.2,3
236561,227117,--,0.000,0.000,0.000,131.9,100,98.2,3
236586,227119,--,0.000,0.000,0.000,131.9,100,98.2,3
236587,227122,--,0.000,0.000,0.000,131.9,100,98.2,3
236597,227115,--,0.000,0.000,0.000,131.9,100,98.2,3
236610,227123,--,0.000,0.000,0.000,131.9,100,98.2,3
236635,227132,--,0.000,0.000,0.000,131.9,100,98.2,3
236655,227133,--,0.000,0.000,0.000,131.9,100,98.2,3
236680,227135,--,0.000,0.000,0.000,131.9,100,98.2,3
236705,227140,--,0.000,0.000,0.000,131.9,100,98.2,3
236732,227155,--,0.000,0.000,0.000,131.9,100,98.2,3
236793,227177,--,0.000,0.000,0.000,131.9,100,98.2,3
236830,227195,--,0.000,0.000,0.000,131.9,100,98.2,3
236851,227196,--,0.000,0.000,0.000,131.9,100,98.2,3
236805,227175,--,0.000,0.000,0.000,131.9,100,98.2,3
236587,227095,--,0.000,0.000,0.000,131.9,100,98.2,3
236298,226983,--,0.000,0.000,0.000,131.9,100,98.2,3
236068,226891,--,0.000,0.000,0.000,131.9,100,98.2,3
235947,226841,--,0.000,0.000,0.000,131.9,100,98.2,3
235917,226836,--,0.000,0.000,0.000,131.9,100,98.2,3
235965,226859,--,0.000,0.000,0.000,131.9,100,98.2,3
236039,226880,--,0.000,0.000,0.000,131.9,100,98.2,3
236104,226908,--,0.000,0.000,0.000,131.9,100,98.2,3
236155,226921,--,0.000,0.000,0.000,131.9,100,98.2,3
236180,226932,--,0.000,0.000,0.000,131.9,100,98.2,3
236197,226941,--,0.000,0.000,0.000,131.9,100,98.2,3
236213,226944,--,0.000,0.000,0.000,131.9,100,98.2,3
236256,226967,--,0.000,0.000,0.000,131.9,100,98.2,3
236285,226977,--,0.000,0.000,0.000,131.9,100,98.2,3
236287,226979,--,0.000,0.000,0.000,131.9,100,98.2,3
236282,226962,--,0.000,0.000,0.000,131.9,100,98.2,3
236272,226964,--,0.000,0.000,0.000,131.9,100,98.2,3
236250,226957,--,0.000,0.000,0.000,131.9,100,98.2,3
236242,226965,--,0.000,0.000,0.000,131.9,100,98.2,3
236269,226969,--,0.000,0.000,0.000,131.9,100,98.2,3
236306,226974,--,0.000,0.000,0.000,131.9,100,98.3,3
236348,226983,--,0.000,0.000,0.000,131.9,100,98.3,3
236384,226997,--,0.000,0.000,0.000,131.9,100,98.3,3
236412,227014,--,0.000,0.000,0.000,131.9,100,98.3,3
236461,227034,--,0.000,0.000,0.000,131.9,100,98.3,3
236502,227040,--,0.000,0.000,0.000,131.9,100,98.3,3
236533,227059,--,0.000,0.000,0.000,131.9,100,98.3,3
236569,227059,--,0.000,0.000,0.000,131.9,100,98.3,3
236601,227068,--,0.000,0.000,0.000,131.9,100,98.3,3
236611,227071,--,0.000,0.000,0.000,131.9,100,98.3,3
236614,227078,--,0.000,0.000,0.000,131.9,100,98.3,3
236632,227077,--,0.000,0.000,0.000,131.9,100,98.3,3
236639,227072,--,0.000,0.000,0.000,131.9,100,98.3,3
236632,227095,--,0.000,0.000,0.000,131.9,100,98.3,3
236615,227102,--,0.000,0.000,0.000,130.3,100,98.3,3
236607,227104,--,0.000,0.000,0.000,130.3,100,98.3,3
236631,227115,--,0.000,0.000,0.000,130.3,100,98.3,3
236673,227121,--,0.000,0.000,0.000,130.3,100,98.3,3
236710,227131,--,0.000,0.000,0.000,130.3,100,98.3,3
236740,227143,--,0.000,0.000,0.000,130.3,100,98.3,3
236778,227160,--,0.000,0.000,0.000,130.3,100,98.3,3
236813,227168,--,0.000,0.000,0.000,130.3,100,98.3,3
236860,227176,--,0.000,0.000,0.000,130.3,100,98.3,3
236894,227182,--,0.000,0.000,0.000,130.3,100,98.3,3
236866,227164,--,0.000,0.000,0.000,130.3,100,98.3,3
236676,227087,--,0.000,0.000,0.000,130.3,100,98.3,3
236415,226987,--,0.000,0.000,0.000,130.3,100,98.3,3
236199,226899,--,0.000,0.000,0.000,130.3,100,98.3,3
236075,226854,--,0.000,0.000,0.000,130.3,100,98.3,3
236051,226839,--,0.000,0.000,0.000,130.3,100,98.3,3
236079,226859,--,0.000,0.000,0.000,130.3,100,98.3,3
236142,226889,--,0.000,0.000,0.000,130.3,100,98.3,3
236219,226917,--,0.000,0.000,0.000,130.3,100,98.3,3
236264,226936,--,0.000,0.000,0.000,130.3,100,98.3,3
236303,226947,--,0.000,0.000,0.000,130.3,100,98.3,3
236306,226948,--,0.000,0.000,0.000,130.3,100,98.3,3
236339,226963,--,0.000,0.000,0.000,130.3,100,98.3,3
236374,226976,--,0.000,0.000,0.000,130.3,100,98.3,3
236408,226976,--,0.000,0.000,0.000,130.3,100,98.3,3
236395,226981,--,0.000,0.000,0.000,130.3,100,98.3,3
236386,226969,--,0.000,0.000,0.000,130.3,100,98.3,3
236371,226953,--,0.000,0.000,0.000,130.3,100,98.3,3
236362,226947,--,0.000,0.000,0.000,130.3,100,98.3,3
236352,226949,--,0.000,0.000,0.000,130.3,100,98.3,3
236374,226955,--,0.000,0.000,0.000,130.3,100,98.3,3
236409,226980,--,0.000,0.000,0.000,130.3,100,98.3,3
236453,226989,--,0.000,0.000,0.000,130.3,100,98.4,3
236499,227002,--,0.000,0.000,0.000,130.3,100,98.4,3
236530,227015,--,0.000,0.000,0.000,130.3,100,98.4,3
236561,227026,--,0.000,0.000,0.000,130.3,100,98.4,3
236586,227035,--,0.000,0.000,0.000,130.3,100,98.4,3
236622,227047,--,0.000,0.000,0.000,130.3,100,98.4,3
236654,227050,--,0.000,0.000,0.000,130.3,100,98.4,3
236661,227055,--,0.000,0.000,0.000,130.3,100,98.4,3
236683,227062,--,0.000,0.000,0.000,130.3,100,98.4,3
236694,227059,--,0.000,0.000,0.000,130.3,100,98.4,3
236700,227068,--,0.000,0.000,0.000,130.3,100,98.4,3
236713,227076,--,0.000,0.000,0.000,130.3,100,98.4,3
236721,227076,--,0.000,0.000,0.000,130.3,100,98.4,3
236726,227066,--,0.000,0.000,0.000,130.3,100,98.4,3
236735,227064,--,0.000,0.000,0.000,130.3,100,98.4,3
236759,227074,--,0.000,0.000,0.000,130.3,100,98.4,3
236773,227070,--,0.000,0.000,0.000,130.3,100,98.4,3
236787,227078,--,0.000,0.000,0.000,130.3,100,98.4,3
236816,227100,--,0.000,0.000,0.000,130.3,100,98.4,3
236846,227104,--,0.000,0.000,0.000,130.3,100,98.4,3
236885,227111,--,0.000,0.000,0.000,130.3,100,98.4,3
236911,227124,--,0.000,0.000,0.000,130.3,100,98.4,3
236888,227103,--,0.000,0.000,0.000,130.3,100,98.4,3
236724,227035,--,0.000,0.000,0.000,130.3,100,98.4,3
236470,226930,--,0.000,0.000,0.000,130.3,100,98.4,3
236252,226844,--,0.000,0.000,0.000,130.3,100,98.4,3
236124,226798,--,0.000,0.000,0.000,130.3,100,98.4,3
236089,226785,--,0.000,0.000,0.000,130.3,100,98.4,3
236142,226818,--,0.000,0.000,0.000,130.3,100,98.4,3
236213,226839,--,0.000,0.000,0.000,130.3,100,98.4,3
236286,226866,--,0.000,0.000,0.000,130.3,100,98.4,3
236344,226885,--,0.000,0.000,0.000,130.3,100,98.4,3
236364,226881,--,0.000,0.000,0.000,130.3,100,98.4,3
236380,226886,--,0.000,0.000,0.000,130.3,100,98.4,3
236407,226900,--,0.000,0.000,0.000,130.3,100,98.4,3
236447,226918,--,0.000,0.000,0.000,130.3,100,98.4,3
236456,226921,--,0.000,0.000,0.000,130.3,100,98.4,3
236455,226917,--,0.000,0.000,0.000,130.3,100,98.4,3
236438,226900,--,0.000,0.000,0.000,130.3,100,98.4,3
236412,226901,--,0.000,0.000,0.000,130.3,100,98.4,3
236403,226892,--,0.000,0.000,0.000,130.3,100,98.4,3
236406,226906,--,0.000,0.000,0.000,130.3,100,98.4,3
236418,226896,--,0.000,0.000,0.000,130.3,100,98.4,3
236433,226901,--,0.000,0.000,0.000,130.3,100,98.3,3
236464,226916,--,0.000,0.000,0.000,130.3,100,98.3,3
236496,226936,--,0.000,0.000,0.000,130.3,100,98.3,3
236528,226948,--,0.000,0.000,0.000,130.3,100,98.3,3
236560,226956,--,0.000,0.000,0.000,130.3,100,98.3,3
236586,226959,--,0.000,0.000,0.000,130.3,100,98.3,3
236615,226974,--,0.000,0.000,0.000,130.3,100,98.3,3
236631,226977,--,0.000,0.000,0.000,130.3,100,98.3,3
236628,226978,--,0.000,0.000,0.000,130.3,100,98.3,3
236651,226981,--,0.000,0.000,0.000,130.3,100,98.3,3
236660,226986,--,0.000,0.000,0.000,130.3,100,98.3,3
236682,226991,--,0.000,0.000,0.000,130.3,100,98.3,3
236676,226995,--,0.000,0.000,0.000,130.3,100,98.3,3
236681,227001,--,0.000,0.000,0.000,130.3,100,98.3,3
236680,226998,--,0.000,0.000,0.000,130.3,100,98.3,3
236703,227012,--,0.000,0.000,0.000,130.3,100,98.3,3
236729,227023,--,0.000,0.000,0.000,130.3,100,98.3,3
236748,227029,--,0.000,0.000,0.000,130.3,100,98.3,3
236782,227039,--,0.000,0.000,0.000,130.3,100,98.3,3
236815,227049,--,0.000,0.000,0.000,130.3,100,98.3,3
236837,227064,--,0.000,0.000,0.000,130.3,100,98.3,3
236849,227070,--,0.000,0.000,0.000,130.3,100,98.3,3
236764,227041,--,0.000,0.000,0.000,130.3,100,98.3,3
236568,226951,--,0.000,0.000,0.000,130.3,100,98.3,3
236317,226857,--,0.000,0.000,0.000,130.3,100,98.3,3
236126,226790,--,0.000,0.000,0.000,130.4,100,98.3,3
236033,226747,--,0.000,0.000,0.000,130.4,100,98.3,3
236027,226745,--,0.000,0.000,0.000,130.4,100,98.3,3
236058,226779,--,0.000,0.000,0.000,130.4,100,98.3,3
236121,226797,--,0.000,0.000,0.000,130.4,100,98.3,3
236185,226825,--,0.000,0.000,0.000,130.4,100,98.3,3
236221,226836,--,0.000,0.000,0.000,130.4,100,98.3,3
236245,226840,--,0.000,0.000,0.000,130.4,100,98.3,3
236256,226848,--,0.000,0.000,0.000,130.4,100,98.3,3
236273,226858,--,0.000,0.000,0.000,130.4,100,98.3,3
236316,226875,--,0.000,0.000,0.000,130.4,100,98.3,3
236337,226891,--,0.000,0.000,0.000,130.4,100,98.3,3
236342,226892,--,0.000,0.000,0.000,130.4,100,98.3,3
236331,226890,--,0.000,0.000,0.000,130.4,100,98.3,3
236324,226880,--,0.000,0.000,0.000,130.4,100,98.3,3
236300,226870,--,0.000,0.000,0.000,130.4,100,98.3,3
236318,226870,--,0.000,0.000,0.000,130.4,100,98.3,3
236328,226876,--,0.000,0.000,0.000,130.4,100,98.3,3
236351,226879,--,0.000,0.000,0.000,130.4,100,98.3,3
236381,226892,--,0.000,0.000,0.000,130.4,100,98.3,3
236413,226904,--,0.000,0.000,0.000,130.4,100,98.3,3
236442,226917,--,0.000,0.000,0.000,130.4,100,98.3,3
236474,226921,--,0.000,0.000,0.000,130.4,100,98.3,3
236500,226929,--,0.000,0.000,0.000,130.4,100,98.3,3
236532,226933,--,0.000,0.000,0.000,130.4,100,98.3,3
236557,226948,--,0.000,0.000,0.000,130.4,100,98.3,3
236582,226959,--,0.000,0.000,0.000,130.4,100,98.3,3
236592,226965,--,0.000,0.000,0.000,130.4,100,98.3,3
236621,226970,--,0.000,0.000,0.000,130.4,100,98.3,3
236634,226975,--,0.000,0.000,0.000,130.4,100,98.3,3
236653,226966,--,0.000,0.000,0.000,130.4,100,98.3,3
236657,226970,--,0.000,0.000,0.000,130.4,100,98.3,3
236660,226977,--,0.000,0.000,0.000,130.4,100,98.3,3
236668,226974,--,0.000,0.000,0.000,130.4,100,98.3,3
236692,226989,--,0.000,0.000,0.000,130.4,100,98.3,3
236721,226990,--,0.000,0.000,0.000,130.4,100,98.3,3
236731,226994,--,0.000,0.000,0.000,130.4,100,98.3,3
236768,227003,--,0.000,0.000,0.000,130.4,100,98.3,3
236800,227016,--,0.000,0.000,0.000,130.4,100,98.3,3
236824,227021,--,0.000,0.000,0.000,130.4,100,98.3,3
236795,227013,--,0.000,0.000,0.000,130.4,100,98.3,3
236655,226958,--,0.000,0.000,0.000,130.4,100,98.3,3
236421,226860,--,0.000,0.000,0.000,130.4,100,98.3,3
236189,226762,--,0.000,0.000,0.000,130.4,100,98.3,3
236042,226707,--,0.000,0.000,0.000,130.4,100,98.3,3
235993,226698,--,0.000,0.000,0.000,130.4,100,98.3,3
236026,226706,--,0.000,0.000,0.000,130.4,100,98.3,3
236081,226734,--,0.000,0.000,0.000,130.4,100,98.3,3
236131,226752,--,0.000,0.000,0.000,130.4,100,98.3,3
236184,226781,--,0.000,0.000,0.000,130.4,100,98.3,3
236214,226790,--,0.000,0.000,0.000,130.4,100,98.3,3
236226,226790,--,0.000,0.000,0.000,130.4,100,98.3,3
236254,226800,--,0.000,0.000,0.000,130.4,100,98.3,3
236268,226811,--,0.000,0.000,0.000,130.4,100,98.3,3
236291,226821,--,0.000,0.000,0.000,130.4,100,98.3,3
236312,226830,--,0.000,0.000,0.000,130.4,100,98.3,3
236323,226842,--,0.000,0.000,0.000,130.4,100,98.3,3
236315,226841,--,0.000,0.000,0.000,130.4,100,98.3,3
236304,226827,--,0.000,0.000,0.000,130.4,100,98.3,3
236294,226828,--,0.000,0.000,0.000,130.4,100,98.3,3
236285,226826,--,0.000,0.000,0.000,130.4,100,98.3,3
236305,226831,--,0.000,0.000,0.000,130.4,100,98.3,3
236338,226849,--,0.000,0.000,0.000,130.4,100,98.4,3
236385,226858,--,0.000,0.000,0.000,130.4,100,98.4,3
236425,226881,--,0.000,0.000,0.000,130.4,100,98.4,3
236448,226893,--,0.000,0.000,0.000,130.4,100,98.4,3
236479,226899,--,0.000,0.000,0.000,130.4,100,98.4,3
236492,226903,--,0.000,0.000,0.000,130.4,100,98.4,3
236533,226916,--,0.000,0.000,0.000,130.4,100,98.4,3
236546,226925,--,0.000,0.000,0.000,130.4,100,98.4,3
236559,226926,--,0.000,0.000,0.000,130.4,100,98.4,3
236572,226927,--,0.000,0.000,0.000,130.4,100,98.4,3
236582,226935,--,0.000,0.000,0.000,130.4,100,98.4,3
236598,226933,--,0.000,0.000,0.000,130.4,100,98.4,3
236616,226942,--,0.000,0.000,0.000,130.4,100,98.4,3
236623,226939,--,0.000,0.000,0.000,130.4,100,98.4,3
236634,226940,--,0.000,0.000,0.000,130.4,100,98.4,3
236658,226950,--,0.000,0.000,0.000,130.4,100,98.4,3
236679,226955,--,0.000,0.000,0.000,130.4,100,98.4,3
236696,226969,--,0.000,0.000,0.000,130.4,100,98.4,3
236723,226978,--,0.000,0.000,0.000,130.4,100,98.4,3
236749,226986,--,0.000,0.000,0.000,130.4,100,98.4,3
236785,226997,--,0.000,0.000,0.000,130.4,100,98.4,3
236813,227008,--,0.000,0.000,0.000,130.4,100,98.4,3
236791,227006,--,0.000,0.000,0.000,130.4,100,98.4,3
236681,226954,--,0.000,0.000,0.000,130.4,100,98.4,3
236454,226868,--,0.000,0.000,0.000,130.4,100,98.4,3
236241,226782,--,0.000,0.000,0.000,130.4,100,98.4,3
236093,226723,--,0.000,0.000,0.000,130.4,100,98.4,3
236057,226706,--,0.000,0.000,0.000,130.4,100,98.4,3
236067,226724,--,0.000,0.000,0.000,130.4,100,98.4,3
236143,226744,--,0.000,0.000,0.000,130.4,100,98.4,3
236215,226766,--,0.000,0.000,0.000,130.4,100,98.4,3
236269,226795,--,0.000,0.000,0.000,130.4,100,98.4,3
236267,226798,--,0.000,0.000,0.000,130.4,100,98.4,3
236286,226801,--,0.000,0.000,0.000,130.4,100,98.4,3
236309,226815,--,0.000,0.000,0.000,130.4,100,98.4,3
236341,226818,--,0.000,0.000,0.000,130.4,100,98.4,3
236377,226827,--,0.000,0.000,0.000,130.4,100,98.4,3
236400,226824,--,0.000,0.000,0.000,130.4,100,98.4,3
236396,226828,--,0.000,0.000,0.000,132.9,100,98.4,3
236389,226824,--,0.000,0.000,0.000,132.9,100,98.4,3
236369,226812,--,0.000,0.000,0.000,132.9,100,98.4,3
236378,226818,--,0.000,0.000,0.000,132.9,100,98.4,3
236390,226822,--,0.000,0.000,0.000,132.9,100,98.4,3
236420,226848,--,0.000,0.000,0.000,132.9,100,98.4,3
236466,226874,--,0.000,0.000,0.000,132.9,100,98.4,3
236525,226895,--,0.000,0.000,0.000,132.9,100,98.4,3
236573,226905,--,0.000,0.000,0.000,132.9,100,98.4,3
236611,226922,--,0.000,0.000,0.000,132.9,100,98.4,3
236652,226938,--,0.000,0.000,0.000,132.9,100,98.4,3
236696,226958,--,0.000,0.000,0.000,132.9,100,98.4,3
236740,226984,--,0.000,0.000,0.000,132.9,100,98.4,3
236764,226996,--,0.000,0.000,0.000,132.9,100,98.4,3
236781,227009,--,0.000,0.000,0.000,132.9,100,98.4,3
236814,227023,--,0.000,0.000,0.000,132.9,100,98.4,3
236832,227027,--,0.000,0.000,0.000,132.9,100,98.4,3
236848,227031,--,0.000,0.000,0.000,132.9,100,98.4,3
236854,227038,--,0.000,0.000,0.000,132.9,100,98.4,3
236871,227045,--,0.000,0.000,0.000,132.9,100,98.4,3
236888,227051,--,0.000,0.000,0.000,132.9,100,98.4,3
236901,227060,--,0.000,0.000,0.000,132.9,100,98.4,3
236937,227073,--,0.000,0.000,0.000,132.9,100,98.4,3
236986,227097,--,0.000,0.000,0.000,132.9,100,98.4,3
237008,227104,--,0.000,0.000,0.000,132.9,100,98.4,3
237039,227106,--,0.000,0.000,0.000,132.9,100,98.4,3
237082,227116,--,0.000,0.000,0.000,132.9,100,98.4,3
237149,227141,--,0.000,0.000,0.000,132.9,100,98.4,3
237214,227155,--,0.000,0.000,0.000,132.9,100,98.4,3
237230,227157,--,0.000,0.000,0.000,132.9,100,98.4,3
237135,227116,--,0.000,0.000,0.000,132.9,100,98.4,3
236854,226996,--,0.000,0.000,0.000,132.9,100,98.4,3
236581,226890,--,0.000,0.000,0.000,132.9,100,98.4,3
236405,226814,--,0.000,0.000,0.000,132.9,100,98.4,3
236350,226791,--,0.000,0.000,0.000,132.9,100,98.4,3
236380,226812,--,0.000,0.000,0.000,132.9,100,98.4,3
236450,226843,--,0.000,0.000,0.000,132.9,100,98.4,3
236530,226880,--,0.000,0.000,0.000,132.9,100,98.4,3
236601,226905,--,0.000,0.000,0.000,132.9,100,98.4,3
236643,226916,--,0.000,0.000,0.000,132.9,100,98.4,3
236656,226931,--,0.000,0.000,0.000,132.9,100,98.4,3
236679,226928,--,0.000,0.000,0.000,132.9,100,98.4,3
236717,226955,--,0.000,0.000,0.000,132.9,100,98.4,3
236750,226961,--,0.000,0.000,0.000,132.9,100,98.4,3
236757,226966,--,0.000,0.000,0.000,132.9,100,98.4,3
236756,226957,--,0.000,0.000,0.000,132.9,100,98.4,3
236747,226949,--,0.000,0.000,0.000,132.9,100,98.4,3
236735,226943,--,0.000,0.000,0.000,132.9,100,98.4,3
236730,226936,--,0.000,0.000,0.000,132.9,100,98.4,3
236750,226949,--,0.000,0.000,0.000,132.9,100,98.4,3
236775,226956,--,0.000,0.000,0.000,132.9,100,98.4,3
236814,226962,--,0.000,0.000,0.000,132.9,100,98.4,3
236858,226990,--,0.000,0.000,0.000,132.9,100,98.4,3
236888,226985,--,0.000,0.000,0.000,132.9,100,98.4,3
236918,227009,--,0.000,0.000,0.000,132.9,100,98.4,3
236952,227016,--,0.000,0.000,0.000,132.9,100,98.4,3
236987,227027,--,0.000,0.000,0.000,132.9,100,98.4,3
237017,227028,--,0.000,0.000,0.000,132.9,100,98.4,3
237059,227038,--,0.000,0.000,0.000,132.9,100,98.4,3
237085,227051,--,0.000,0.000,0.000,132.9,100,98.4,3
237097,227047,--,0.000,0.000,0.000,132.9,100,98.4,3
237111,227058,--,0.000,0.000,0.000,132.9,100,98.4,3
237114,227062,--,0.000,0.000,0.000,132.9,100,98.4,3
237114,227066,--,0.000,0.000,0.000,132.9,100,98.4,3
237126,227063,--,0.000,0.000,0.000,132.9,100,98.4,3
237141,227069,--,0.000,0.000,0.000,132.9,100,98.4,3
237158,227070,--,0.000,0.000,0.000,132.9,100,98.4,3
237187,227083,--,0.000,0.000,0.000,132.9,100,98.4,3
237208,227090,--,0.000,0.000,0.000,132.9,100,98.4,3
237228,227100,--,0.000,0.000,0.000,132.9,100,98.4,3
237262,227112,--,0.000,0.000,0.000,132.9,100,98.4,3
237311,227117,--,0.000,0.000,0.000,132.9,100,98.4,3
237349,227132,--,0.000,0.000,0.000,132.9,100,98.4,3
237376,227142,--,0.000,0.000,0.000,132.9,100,98.4,3
237320,227111,--,0.000,0.000,0.000,132.9,100,98.4,3
237113,227028,--,0.000,0.000,0.000,132.9,100,98.4,3
236833,226916,--,0.000,0.000,0.000,132.9,100,98.4,3
236640,226849,--,0.000,0.000,0.000,132.9,100,98.4,3
236553,226804,--,0.000,0.000,0.000,132.9,100,98.4,3
236553,226812,--,0.000,0.000,0.000,132.9,100,98.4,3
236596,226839,--,0.000,0.000,0.000,132.9,100,98.4,3
236669,226870,--,0.000,0.000,0.000,132.9,100,98.4,3
236742,226894,--,0.000,0.000,0.000,132.9,100,98.4,3
236791,226917,--,0.000,0.000,0.000,132.9,100,98.4,3
236827,226926,--,0.000,0.000,0.000,132.9,100,98.4,3
236854,226942,--,0.000,0.000,0.000,132.9,100,98.4,3
236882,226955,--,0.000,0.000,0.000,132.9,100,98.4,3
236921,226966,--,0.000,0.000,0.000,132.9,100,98.4,3
236925,226966,--,0.000,0.000,0.000,132.9,100,98.4,3
236923,226961,--,0.000,0.000,0.000,132.9,100,98.4,3
236899,226955,--,0.000,0.000,0.000,132.9,100,98.4,3
236874,226951,--,0.000,0.000,0.000,132.9,100,98.4,3
236859,226941,--,0.000,0.000,0.000,132.9,100,98.4,3
236868,226947,--,0.000,0.000,0.000,132.9,100,98.4,3
236889,226975,--,0.000,0.000,0.000,132.9,100,98.4,3
236934,226981,--,0.000,0.000,0.000,132.9,100,98.4,3
236977,226987,--,0.000,0.000,0.000,132.9,100,98.4,3
237001,227007,--,0.000,0.000,0.000,132.9,100,98.4,3
237026,227020,--,0.000,0.000,0.000,132.9,100,98.4,3
237063,227023,--,0.000,0.000,0.000,132.9,100,98.4,3
237115,227039,--,0.000,0.000,0.000,134.3,100,98.4,3
237142,227045,--,0.000,0.000,0.000,134.3,100,98.4,3
237157,227061,--,0.000,0.000,0.000,134.3,100,98.4,3
237174,227068,--,0.000,0.000,0.000,134.3,100,98.4,3
237195,227075,--,0.000,0.000,0.000,134.3,100,98.4,3
237219,227081,--,0.000,0.000,0.000,134.3,100,98.4,3
237236,227082,--,0.000,0.000,0.000,134.3,100,98.4,3
237233,227088,--,0.000,0.000,0.000,134.3,100,98.4,3
237238,227090,--,0.000,0.000,0.000,134.3,100,98.4,3
237264,227099,--,0.000,0.000,0.000,134.3,100,98.4,3
237284,227095,--,0.000,0.000,0.000,134.3,100,98.4,3
237304,227101,--,0.000,0.000,0.000,134.3,100,98.4,3
237332,227107,--,0.000,0.000,0.000,134.3,100,98.4,3
237358,227115,--,0.000,0.000,0.000,134.3,100,98.4,3
237394,227124,--,0.000,0.000,0.000,134.3,100,98.4,3
237436,227148,--,0.000,0.000,0.000,134.3,100,98.4,3
237461,227156,--,0.000,0.000,0.000,134.3,100,98.4,3
237477,227161,--,0.000,0.000,0.000,134.3,100,98.4,3
237412,227137,--,0.000,0.000,0.000,134.3,100,98.4,3
237198,227050,--,0.000,0.000,0.000,134.3,100,98.4,3
236928,226943,--,0.000,0.000,0.000,134.3,100,98.4,3
236703,226854,--,0.000,0.000,0.000,134.3,100,98.4,3
236579,226799,--,0.000,0.000,0.000,134.3,100,98.4,3
236558,226804,--,0.000,0.000,0.000,134.3,100,98.4,3
236592,226827,--,0.000,0.000,0.000,134.3,100,98.4,3
236660,226858,--,0.000,0.000,0.000,134.3,100,98.4,3
236735,226883,--,0.000,0.000,0.000,134.3,100,98.4,3
236785,226901,--,0.000,0.000,0.000,134.3,100,98.4,3
236797,226906,--,0.000,0.000,0.000,134.3,100,98.4,3
236787,226908,--,0.000,0.000,0.000,134.3,100,98.4,3
236821,226912,--,0.000,0.000,0.000,134.3,100,98.4,3
236849,226932,--,0.000,0.000,0.000,134.3,100,98.4,3
236878,226934,--,0.000,0.000,0.000,134.3,100,98.4,3
236891,226946,--,0.000,0.000,0.000,134.3,100,98.4,3
236892,226938,--,0.000,0.000,0.000,134.3,100,98.4,3
236873,226925,--,0.000,0.000,0.000,134.3,100,98.4,3
236861,226933,--,0.000,0.000,0.000,134.3,100,98.4,3
236852,226931,--,0.000,0.000,0.000,134.3,100,98.4,3
236859,226931,--,0.000,0.000,0.000,134.3,100,98.4,3
236892,226941,--,0.000,0.000,0.000,134.3,100,98.5,3
236917,226955,--,0.000,0.000,0.000,134.3,100,98.5,3
236956,226963,--,0.000,0.000,0.000,134.3,100,98.5,3
236980,226983,--,0.000,0.000,0.000,134.3,100,98.5,3
237014,227002,--,0.000,0.000,0.000,134.3,100,98.5,3
237047,227000,--,0.000,0.000,0.000,134.3,100,98.5,3
237074,227024,--,0.000,0.000,0.000,134.3,100,98.5,3
237094,227024,--,0.000,0.000,0.000,134.3,100,98.5,3
237104,227039,--,0.000,0.000,0.000,134.3,100,98.5,3
237118,227043,--,0.000,0.000,0.000,134.3,100,98.5,3
237135,227040,--,0.000,0.000,0.000,134.3,100,98.5,3
237160,227045,--,0.000,0.000,0.000,134.3,100,98.5,3
237163,227053,--,0.000,0.000,0.000,134.3,100,98.5,3
237183,227056,--,0.000,0.000,0.000,134.3,100,98.5,3
237189,227052,--,0.000,0.000,0.000,134.3,100,98.5,3
237198,227061,--,0.000,0.000,0.000,134.3,100,98.5,3
237220,227058,--,0.000,0.000,0.000,134.3,100,98.5,3
237236,227061,--,0.000,0.000,0.000,134.3,100,98.5,3
237260,227074,--,0.000,0.000,0.000,134.3,100,98.5,3
237282,227083,--,0.000,0.000,0.000,134.3,100,98.5,3
237311,227092,--,0.000,0.000,0.000,134.3,100,98.5,3
237343,227096,--,0.000,0.000,0.000,134.3,100,98.5,3
237370,227126,--,0.000,0.000,0.000,134.3,100,98.5,3
237404,227134,--,0.000,0.000,0.000,134.3,100,98.5,3
237403,227128,--,0.000,0.000,0.000,134.3,100,98.5,3
237298,227082,--,0.000,0.000,0.000,134.3,100,98.5,3
237065,226991,--,0.000,0.000,0.000,134.3,100,98.5,3
236805,226897,--,0.000,0.000,0.000,134.3,100,98.5,3
236618,226831,--,0.000,0.000,0.000,134.3,100,98.5,3
236537,226807,--,0.000,0.000,0.000,134.3,100,98.5,3
236549,226809,--,0.000,0.000,0.000,134.3,100,98.5,3
236601,226823,--,0.000,0.000,0.000,134.3,100,98.5,3
236681,226855,--,0.000,0.000,0.000,134.3,100,98.5,3
236730,226880,--,0.000,0.000,0.000,134.3,100,98.5,3
236760,226890,--,0.000,0.000,0.000,134.3,100,98.5,3
236772,226889,--,0.000,0.000,0.000,134.3,100,98.5,3
236782,226899,--,0.000,0.000,0.000,134.3,100,98.5,3
236799,226906,--,0.000,0.000,0.000,134.3,100,98.5,3
236844,226919,--,0.000,0.000,0.000,134.3,100,98.5,3
236865,226928,--,0.000,0.000,0.000,134.3,100,98.5,3
236865,226937,--,0.000,0.000,0.000,134.3,100,98.5,3
236854,226930,--,0.000,0.000,0.000,134.3,100,98.5,3
236826,226916,--,0.000,0.000,0.000,134.3,100,98.5,3
236839,226919,--,0.000,0.000,0.000,134.3,100,98.5,3
236846,226919,--,0.000,0.000,0.000,134.3,100,98.5,3
236862,226928,--,0.000,0.000,0.000,134.3,100,98.5,3
236876,226930,--,0.000,0.000,0.000,134.3,100,98.5,3
236913,226939,--,0.000,0.000,0.000,134.3,100,98.5,3
236943,226954,--,0.000,0.000,0.000,134.3,100,98.5,3
236984,226962,--,0.000,0.000,0.000,134.3,100,98.5,3
237015,226968,--,0.000,0.000,0.000,134.3,100,98.5,3
237037,226984,--,0.000,0.000,0.000,134.3,100,98.5,3
237067,226990,--,0.000,0.000,0.000,134.3,100,98.5,3
237082,226995,--,0.000,0.000,0.000,134.3,100,98.5,3
237107,227000,--,0.000,0.000,0.000,134.3,100,98.5,3
237139,226997,--,0.000,0.000,0.000,134.3,100,98.5,3
237150,227002,--,0.000,0.000,0.000,134.3,100,98.5,3
237155,227002,--,0.000,0.000,0.000,134.3,100,98.5,3
237168,227019,--,0.000,0.000,0.000,134.3,100,98.5,3
237193,227013,--,0.000,0.000,0.000,134.3,100,98.5,3
237203,227008,--,0.000,0.000,0.000,134.3,100,98.5,3
237213,227019,--,0.000,0.000,0.000,134.3,100,98.5,3
237230,227026,--,0.000,0.000,0.000,134.3,100,98.5,3
237256,227038,--,0.000,0.000,0.000,134.3,100,98.5,3
237295,227038,--,0.000,0.000,0.000,134.3,100,98.5,3
237315,227059,--,0.000,0.000,0.000,134.3,100,98.5,3
237333,227049,--,0.000,0.000,0.000,134.3,100,98.5,3
237343,227076,--,0.000,0.000,0.000,134.3,100,98.5,3
237376,227086,--,0.000,0.000,0.000,134.3,100,98.5,3
237417,227099,--,0.000,0.000,0.000,134.3,100,98.5,3
237442,227104,--,0.000,0.000,0.000,134.3,100,98.5,3
237489,227115,--,0.000,0.000,0.000,134.3,100,98.5,3
237530,227128,--,0.000,0.000,0.000,134.3,100,98.5,3
237554,227133,--,0.000,0.000,0.000,134.3,100,98.5,3
237542,227122,--,0.000,0.000,0.000,134.3,100,98.5,3
237354,227061,--,0.000,0.000,0.000,134.3,100,98.5,3
237059,226933,--,0.000,0.000,0.000,134.3,100,98.5,3
236815,226833,--,0.000,0.000,0.000,134.3,100,98.5,3
236672,226769,--,0.000,0.000,0.000,134.3,100,98.5,3
236632,226761,--,0.000,0.000,0.000,134.3,100,98.5,3
236658,226790,--,0.000,0.000,0.000,134.3,100,98.5,3
236734,226825,--,0.000,0.000,0.000,134.3,100,98.5,3
236806,226857,--,0.000,0.000,0.000,134.3,100,98.5,3
236858,226881,--,0.000,0.000,0.000,134.3,100,98.5,3
236891,226884,--,0.000,0.000,0.000,134.3,100,98.5,3
236898,226897,--,0.000,0.000,0.000,134.3,100,98.5,3
236919,226899,--,0.000,0.000,0.000,134.3,100,98.5,3
236941,226908,--,0.000,0.000,0.000,134.3,100,98.5,3
236961,226918,--,0.000,0.000,0.000,134.3,100,98.5,3
236985,226920,--,0.000,0.000,0.000,134.3,100,98.5,3
236969,226905,--,0.000,0.000,0.000,134.3,100,98.5,3
236955,226900,--,0.000,0.000,0.000,134.3,100,98.5,3
236951,226888,--,0.000,0.000,0.000,134.3,100,98.5,3
236950,226888,--,0.000,0.000,0.000,134.3,100,98.5,3
236950,226883,--,0.000,0.000,0.000,134.3,100,98.5,3
236968,226897,--,0.000,0.000,0.000,134.3,100,98.5,3
237009,226902,--,0.000,0.000,0.000,134.3,100,98.6,3
237031,226916,--,0.000,0.000,0.000,134.3,100,98.6,3
237067,226923,--,0.000,0.000,0.000,134.3,100,98.6,3
237097,226926,--,0.000,0.000,0.000,134.3,100,98.6,3
237132,226945,--,0.000,0.000,0.000,134.3,100,98.6,3
237159,226953,--,0.000,0.000,0.000,134.3,100,98.6,3
237166,226967,--,0.000,0.000,0.000,134.3,100,98.6,3
237191,226964,--,0.000,0.000,0.000,134.3,100,98.6,3
237197,226969,--,0.000,0.000,0.000,134.3,100,98.6,3
237218,226978,--,0.000,0.000,0.000,134.3,100,98.6,3
237240,226987,--,0.000,0.000,0.000,134.3,100,98.6,3
237255,226986,--,0.000,0.000,0.000,134.3,100,98.6,3
237284,226984,--,0.000,0.000,0.000,134.3,100,98.6,3
237286,226976,--,0.000,0.000,0.000,134.3,100,98.6,3
237298,226990,--,0.000,0.000,0.000,134.3,100,98.6,3
237331,226989,--,0.000,0.000,0.000,134.3,100,98.6,3
237358,226989,--,0.000,0.000,0.000,134.3,100,98.6,3
237369,226987,--,0.000,0.000,0.000,134.3,100,98.6,3
237398,227004,--,0.000,0.000,0.000,134.3,100,98.6,3
237426,227017,--,0.000,0.000,0.000,134.3,100,98.6,3
237456,227026,--,0.000,0.000,0.000,134.3,100,98.6,3
237476,227034,--,0.000,0.000,0.000,134.3,100,98.6,3
237492,227034,--,0.000,0.000,0.000,134.3,100,98.6,3
237523,227040,--,0.000,0.000,0.000,134.3,100,98.6,3
237568,227054,--,0.000,0.000,0.000,134.3,100,98.6,3
237599,227073,--,0.000,0.000,0.000,134.3,100,98.6,3
237626,227084,--,0.000,0.000,0.000,134.3,100,98.6,3
237631,227081,--,0.000,0.000,0.000,134.3,100,98.6,3
237507,227020,--,0.000,0.000,0.000,134.3,100,98.6,3
237207,226894,--,0.000,0.000,0.000,134.3,100,98.6,3
236931,226786,--,0.000,0.000,0.000,134.3,100,98.6,3
236759,226739,--,0.000,0.000,0.000,134.3,100,98.6,3
236706,226712,--,0.000,0.000,0.000,134.3,100,98.6,3
236751,226736,--,0.000,0.000,0.000,134.3,100,98.6,3
236832,226762,--,0.000,0.000,0.000,134.3,100,98.6,3
236919,226801,--,0.000,0.000,0.000,134.3,100,98.6,3
236996,226818,--,0.000,0.000,0.000,134.3,100,98.6,3
237034,226839,--,0.000,0.000,0.000,134.3,100,98.6,3
237050,226854,--,0.000,0.000,0.000,134.3,100,98.6,3
237077,226861,--,0.000,0.000,0.000,134.3,100,98.6,3
237099,226871,--,0.000,0.000,0.000,134.3,100,98.6,3
237142,226887,--,0.000,0.000,0.000,134.3,100,98.6,3
237149,226879,--,0.000,0.000,0.000,134.3,100,98.6,3
237144,226871,--,0.000,0.000,0.000,134.3,100,98.6,3
237114,226856,--,0.000,0.000,0.000,134.3,100,98.6,3
237083,226852,--,0.000,0.000,0.000,134.3,100,98.6,3
237066,226846,--,0.000,0.000,0.000,134.3,100,98.6,3
237077,226848,--,0.000,0.000,0.000,134.3,100,98.6,3
237109,226853,--,0.000,0.000,0.000,134.3,100,98.6,3
237147,226858,--,0.000,0.000,0.000,134.3,100,98.5,3
237183,226883,--,0.000,0.000,0.000,134.3,100,98.5,3
237226,226895,--,0.000,0.000,0.000,134.3,100,98.5,3
237262,226910,--,0.000,0.000,0.000,134.3,100,98.5,3
237305,226918,--,0.000,0.000,0.000,134.3,100,98.5,3
237331,226925,--,0.000,0.000,0.000,134.3,100,98.5,3
237361,226929,--,0.000,0.000,0.000,134.3,100,98.5,3
237384,226941,--,0.000,0.000,0.000,134.3,100,98.5,3
237395,226941,--,0.000,0.000,0.000,134.3,100,98.5,3
237418,226946,--,0.000,0.000,0.000,134.3,100,98.5,3
237422,226952,--,0.000,0.000,0.000,134.3,100,98.5,3
237427,226966,--,0.000,0.000,0.000,134.3,100,98.5,3
237464,226962,--,0.000,0.000,0.000,134.3,100,98.5,3
237483,226963,--,0.000,0.000,0.000,134.3,100,98.5,3
237502,226971,--,0.000,0.000,0.000,134.3,100,98.5,3
237518,226972,--,0.000,0.000,0.000,134.3,100,98.5,3
237537,226987,--,0.000,0.000,0.000,133.4,100,98.5,3
237552,226988,--,0.000,0.000,0.000,133.4,100,98.5,3
237571,226990,--,0.000,0.000,0.000,133.4,100,98.5,3
237600,227005,--,0.000,0.000,0.000,133.4,100,98.5,3
237641,227011,--,0.000,0.000,0.000,133.4,100,98.5,3
237693,227027,--,0.000,0.000,0.000,133.4,100,98.5,3
237738,227040,--,0.000,0.000,0.000,133.4,100,98.5,3
237782,227056,--,0.000,0.000,0.000,133.4,100,98.5,3
237839,227066,--,0.000,0.000,0.000,133.4,100,98.5,3
237886,227091,--,0.000,0.000,0.000,133.4,100,98.5,3
237881,227079,--,0.000,0.000,0.000,133.4,100,98.5,3
237732,227024,--,0.000,0.000,0.000,133.4,100,98.5,3
237387,226888,--,0.000,0.000,0.000,133.4,100,98.5,3
237076,226758,--,0.000,0.000,0.000,133.4,100,98.5,3
236863,226684,--,0.000,0.000,0.000,133.4,100,98.5,3
236765,226640,--,0.000,0.000,0.000,133.4,100,98.5,3
236763,226648,--,0.000,0.000,0.000,133.4,100,98.5,3
236806,226682,--,0.000,0.000,0.000,133.4,100,98.5,3
236886,226714,--,0.000,0.000,0.000,133.4,100,98.5,3
236969,226737,--,0.000,0.000,0.000,133.4,100,98.5,3
237022,226758,--,0.000,0.000,0.000,133.4,100,98.5,3
237045,226767,--,0.000,0.000,0.000,133.4,100,98.5,3
237066,226768,--,0.000,0.000,0.000,133.4,100,98.5,3
237089,226780,--,0.000,0.000,0.000,133.4,100,98.5,3
237131,226795,--,0.000,0.000,0.000,133.4,100,98.5,3
237149,226797,--,0.000,0.000,0.000,133.4,100,98.5,3
237150,226788,--,0.000,0.000,0.000,133.4,100,98.5,3
237148,226780,--,0.000,0.000,0.000,133.4,100,98.5,3
237117,226776,--,0.000,0.000,0.000,133.4,100,98.5,3
237097,226762,--,0.000,0.000,0.000,133.4,100,98.5,3
237094,226770,--,0.000,0.000,0.000,133.4,100,98.5,3
237106,226771,--,0.000,0.000,0.000,133.4,100,98.5,3
237123,226784,--,0.000,0.000,0.000,133.4,100,98.6,3
237158,226790,--,0.000,0.000,0.000,133.4,100,98.6,3
237201,226811,--,0.000,0.000,0.000,133.4,100,98.6,3
237236,226819,--,0.000,0.000,0.000,133.4,100,98.6,3
237264,226837,--,0.000,0.000,0.000,133.4,100,98.6,3
237298,226846,--,0.000,0.000,0.000,133.4,100,98.6,3
237345,226849,--,0.000,0.000,0.000,133.4,100,98.6,3
237380,226863,--,0.000,0.000,0.000,133.4,100,98.6,3
237404,226877,--,0.000,0.000,0.000,133.4,100,98.6,3
237416,226873,--,0.000,0.000,0.000,133.4,100,98.6,3
237432,226883,--,0.000,0.000,0.000,133.4,100,98.6,3
237454,226882,--,0.000,0.000,0.000,133.4,100,98.6,3
237449,226888,--,0.000,0.000,0.000,133.4,100,98.6,3
237475,226885,--,0.000,0.000,0.000,133.4,100,98.6,3
237485,226901,--,0.000,0.000,0.000,133.4,100,98.6,3
237492,226888,--,0.000,0.000,0.000,133.4,100,98.6,3
237514,226896,--,0.000,0.000,0.000,133.4,100,98.6,3
237536,226903,--,0.000,0.000,0.000,133.4,100,98.6,3
237554,226906,--,0.000,0.000,0.000,133.4,100,98.6,3
237576,226916,--,0.000,0.000,0.000,133.4,100,98.6,3
237598,226930,--,0.000,0.000,0.000,133.4,100,98.6,3
237622,226950,--,0.000,0.000,0.000,133.4,100,98.6,3
237654,226956,--,0.000,0.000,0.000,133.4,100,98.6,3
237701,226967,--,0.000,0.000,0.000,133.4,100,98.6,3
237728,226975,--,0.000,0.000,0.000,133.4,100,98.6,3
237693,226955,--,0.000,0.000,0.000,133.4,100,98.6,3
237459,226860,--,0.000,0.000,0.000,133.4,100,98.6,3
237134,226739,--,0.000,0.000,0.000,133.4,100,98.6,3
236881,226647,--,0.000,0.000,0.000,133.4,100,98.6,3
236729,226586,--,0.000,0.000,0.000,133.4,100,98.6,3
236694,226568,--,0.000,0.000,0.000,133.4,100,98.6,3
236743,226580,--,0.000,0.000,0.000,133.4,100,98.6,3
236824,226617,--,0.000,0.000,0.000,133.4,100,98.6,3
236903,226657,--,0.000,0.000,0.000,133.4,100,98.6,3
236952,226672,--,0.000,0.000,0.000,133.4,100,98.6,3
236980,226692,--,0.000,0.000,0.000,133.4,100,98.6,3
236979,226676,--,0.000,0.000,0.000,133.4,100,98.6,3
237006,226681,--,0.000,0.000,0.000,133.4,100,98.6,3
237051,226692,--,0.000,0.000,0.000,133.4,100,98.6,3
237078,226701,--,0.000,0.000,0.000,133.4,100,98.6,3
237084,226710,--,0.000,0.000,0.000,133.4,100,98.6,3
237076,226710,--,0.000,0.000,0.000,133.4,100,98.6,3
237048,226695,--,0.000,0.000,0.000,133.4,100,98.6,3
237047,226689,--,0.000,0.000,0.000,133.4,100,98.6,3
237033,226684,--,0.000,0.000,0.000,133.4,100,98.6,3
237047,226680,--,0.000,0.000,0.000,133.4,100,98.6,3
237060,226686,--,0.000,0.000,0.000,133.4,100,98.6,3
237093,226694,--,0.000,0.000,0.000,133.4,100,98.6,3
237123,226711,--,0.000,0.000,0.000,133.4,100,98.6,3
237169,226721,--,0.000,0.000,0.000,133.4,100,98.6,3
237210,226736,--,0.000,0.000,0.000,133.4,100,98.6,3
237261,226750,--,0.000,0.000,0.000,133.4,100,98.6,3
237283,226759,--,0.000,0.000,0.000,133.4,100,98.6,3
237307,226757,--,0.000,0.000,0.000,133.4,100,98.6,3
237344,226768,--,0.000,0.000,0.000,133.4,100,98.6,3
237374,226782,--,0.000,0.000,0.000,133.4,100,98.6,3
237398,226784,--,0.000,0.000,0.000,133.4,100,98.6,3
237412,226788,--,0.000,0.000,0.000,133.4,100,98.6,3
237427,226794,--,0.000,0.000,0.000,133.4,100,98.6,3
237416,226795,--,0.000,0.000,0.000,133.4,100,98.6,3
237425,226793,--,0.000,0.000,0.000,133.4,100,98.6,3
237445,226800,--,0.000,0.000,0.000,133.4,100,98.6,3
237462,226806,--,0.000,0.000,0.000,133.4,100,98.6,3
237488,226810,--,0.000,0.000,0.000,133.4,100,98.6,3
237514,226817,--,0.000,0.000,0.000,133.4,100,98.6,3
237560,226828,--,0.000,0.000,0.000,133.4,100,98.6,3
237603,226836,--,0.000,0.000,0.000,133.4,100,98.6,3
237641,226854,--,0.000,0.000,0.000,133.4,100,98.6,3
237686,226858,--,0.000,0.000,0.000,131.9,100,98.6,3
237718,226866,--,0.000,0.000,0.000,131.9,100,98.6,3
237656,226841,--,0.000,0.000,0.000,131.9,100,98.6,3
237366,226724,--,0.000,0.000,0.000,131.9,100,98.6,3
237047,226594,--,0.000,0.000,0.000,131.9,100,98.6,3
236827,226517,--,0.000,0.000,0.000,131.9,100,98.6,3
236717,226483,--,0.000,0.000,0.000,131.9,100,98.6,3
236717,226487,--,0.000,0.000,0.000,131.9,100,98.6,3
236792,226517,--,0.000,0.000,0.000,131.9,100,98.6,3
236894,226551,--,0.000,0.000,0.000,131.9,100,98.6,3
236980,226587,--,0.000,0.000,0.000,131.9,100,98.6,3
237061,226616,--,0.000,0.000,0.000,131.9,100,98.6,3
237080,226627,--,0.000,0.000,0.000,131.9,100,98.6,3
237091,226629,--,0.000,0.000,0.000,131.9,100,98.6,3
237130,226637,--,0.000,0.000,0.000,131.9,100,98.6,3
237183,226661,--,0.000,0.000,0.000,131.9,100,98.6,3
237207,226676,--,0.000,0.000,0.000,131.9,100,98.6,3
237202,226653,--,0.000,0.000,0.000,131.9,100,98.6,3
237162,226644,--,0.000,0.000,0.000,131.9,100,98.6,3
237122,226627,--,0.000,0.000,0.000,131.9,100,98.6,3
237098,226618,--,0.000,0.000,0.000,131.9,100,98.6,3
237101,226629,--,0.000,0.000,0.000,131.9,100,98.6,3
237141,226645,--,0.000,0.000,0.000,131.9,100,98.6,3
237189,226659,--,0.000,0.000,0.000,131.9,100,98.6,3
237241,226681,--,0.000,0.000,0.000,131.9,100,98.6,3
237292,226708,--,0.000,0.000,0.000,131.9,100,98.6,3
237342,226722,--,0.000,0.000,0.000,131.9,100,98.6,3
237398,226740,--,0.000,0.000,0.000,131.9,100,98.6,3
237450,226760,--,0.000,0.000,0.000,131.9,100,98.6,3
237522,226780,--,0.000,0.000,0.000,131.9,100,98.6,3
237587,226798,--,0.000,0.000,0.000,131.9,100,98.6,3
237619,226810,--,0.000,0.000,0.000,131.9,100,98.6,3
237641,226826,--,0.000,0.000,0.000,131.9,100,98.6,3
237657,226828,--,0.000,0.000,0.000,131.9,100,98.6,3
237659,226819,--,0.000,0.000,0.000,131.9,100,98.6,3
237642,226805,--,0.000,0.000,0.000,131.9,100,98.6,3
237629,226793,--,0.000,0.000,0.000,131.9,100,98.6,3
237627,226798,--,0.000,0.000,0.000,131.9,100,98.6,3
237638,226796,--,0.000,0.000,0.000,131.9,100,98.6,3
237680,226798,--,0.000,0.000,0.000,131.9,100,98.6,3
237751,226830,--,0.000,0.000,0.000,131.9,100,98.6,3
237825,226858,--,0.000,0.000,0.000,131.9,100,98.6,3
237915,226893,--,0.000,0.000,0.000,131.9,100,98.6,3
237956,226921,--,0.000,0.000,0.000,131.9,100,98.6,3
237980,226928,--,0.000,0.000,0.000,131.9,100,98.6,3
237861,226878,--,0.000,0.000,0.000,131.9,100,98.6,3
237503,226740,--,0.000,0.000,0.000,131.9,100,98.6,3
237141,226597,--,0.000,0.000,0.000,131.9,100,98.6,3
236913,226501,--,0.000,0.000,0.000,131.9,100,98.6,3
236801,226458,--,0.000,0.000,0.000,131.9,100,98.6,3
236787,226458,--,0.000,0.000,0.000,131.9,100,98.6,3
236844,226487,--,0.000,0.000,0.000,131.9,100,98.6,3
236933,226515,--,0.000,0.000,0.000,131.9,100,98.6,3
237017,226544,--,0.000,0.000,0.000,131.9,100,98.6,3
237070,226560,--,0.000,0.000,0.000,131.9,100,98.6,3
237094,226565,--,0.000,0.000,0.000,131.9,100,98.6,3
237096,226567,--,0.000,0.000,0.000,131.9,100,98.6,3
237115,226566,--,0.000,0.000,0.000,131.9,100,98.6,3
237163,226579,--,0.000,0.000,0.000,131.9,100,98.6,3
237186,226585,--,0.000,0.000,0.000,131.9,100,98.6,3
237176,226568,--,0.000,0.000,0.000,131.9,100,98.6,3
237138,226562,--,0.000,0.000,0.000,131.9,100,98.6,3
237093,226542,--,0.000,0.000,0.000,131.9,100,98.6,3
237084,226529,--,0.000,0.000,0.000,131.9,100,98.6,3
237102,226542,--,0.000,0.000,0.000,131.9,100,98.6,3
237112,226537,--,0.000,0.000,0.000,131.9,100,98.6,3
237156,226554,--,0.000,0.000,0.000,131.9,100,98.6,3
237203,226567,--,0.000,0.000,0.000,131.9,100,98.6,3
237258,226598,--,0.000,0.000,0.000,131.9,100,98.6,3
237287,226613,--,0.000,0.000,0.000,131.9,100,98.6,3
237332,226626,--,0.000,0.000,0.000,131.9,100,98.6,3
237371,226631,--,0.000,0.000,0.000,131.9,100,98.6,3
237405,226641,--,0.000,0.000,0.000,131.9,100,98.6,3
237429,226653,--,0.000,0.000,0.000,131.9,100,98.6,3
237447,226668,--,0.000,0.000,0.000,131.9,100,98.6,3
237451,226679,--,0.000,0.000,0.000,131.9,100,98.6,3
237458,226673,--,0.000,0.000,0.000,131.9,100,98.6,3
237467,226669,--,0.000,0.000,0.000,131.9,100,98.6,3
237484,226671,--,0.000,0.000,0.000,131.9,100,98.6,3
237510,226674,--,0.000,0.000,0.000,131.9,100,98.6,3
237532,226669,--,0.000,0.000,0.000,131.9,100,98.6,3
237551,226685,--,0.000,0.000,0.000,131.9,100,98.6,3
237568,226685,--,0.000,0.000,0.000,131.9,100,98.6,3
237605,226698,--,0.000,0.000,0.000,131.9,100,98.6,3
237656,226727,--,0.000,0.000,0.000,131.9,100,98.6,3
237691,226726,--,0.000,0.000,0.000,131.9,100,98.6,3
237700,226734,--,0.000,0.000,0.000,131.9,100,98.6,3
237527,226669,--,0.000,0.000,0.000,131.9,100,98.6,3
237168,226530,--,0.000,0.000,0.000,131.9,100,98.6,3
236875,226410,--,0.000,0.000,0.000,131.9,100,98.6,3
236675,226346,--,0.000,0.000,0.000,131.9,100,98.6,3
236597,226312,--,0.000,0.000,0.000,131.9,100,98.6,3
236616,226336,--,0.000,0.000,0.000,131.9,100,98.6,3
236672,226350,--,0.000,0.000,0.000,131.9,100,98.6,3
236741,226379,--,0.000,0.000,0.000,131.9,100,98.6,3
236781,226399,--,0.000,0.000,0.000,131.9,100,98.6,3
236815,226417,--,0.000,0.000,0.000,131.9,100,98.6,3
236826,226414,--,0.000,0.000,0.000,131.9,100,98.6,3
236839,226416,--,0.000,0.000,0.000,131.9,100,98.6,3
236865,226423,--,0.000,0.000,0.000,131.9,100,98.6,3
236905,226436,--,0.000,0.000,0.000,131.5,100,98.6,3
236942,226441,--,0.000,0.000,0.000,131.5,100,98.6,3
236933,226449,--,0.000,0.000,0.000,131.5,100,98.6,3
236923,226437,--,0.000,0.000,0.000,131.5,100,98.6,3
236902,226426,--,0.000,0.000,0.000,131.5,100,98.6,3
236903,226424,--,0.000,0.000,0.000,131.5,100,98.6,3
236904,226422,--,0.000,0.000,0.000,131.5,100,98.6,3
236915,226425,--,0.000,0.000,0.000,131.5,100,98.6,3
236930,226436,--,0.000,0.000,0.000,131.5,100,98.6,3
236980,226446,--,0.000,0.000,0.000,131.5,100,98.6,3
237032,226460,--,0.000,0.000,0.000,131.5,100,98.6,3
237054,226472,--,0.000,0.000,0.000,131.5,100,98.6,3
237082,226488,--,0.000,0.000,0.000,131.5,100,98.6,3
237108,226493,--,0.000,0.000,0.000,131.5,100,98.6,3
237119,226500,--,0.000,0.000,0.000,131.5,100,98.6,3
237140,226514,--,0.000,0.000,0.000,131.5,100,98.6,3
237162,226518,--,0.000,0.000,0.000,131.5,100,98.6,3
237175,226516,--,0.000,0.000,0.000,131.5,100,98.6,3
237181,226519,--,0.000,0.000,0.000,131.5,100,98.6,3
237192,226516,--,0.000,0.000,0.000,131.5,100,98.6,3
237194,226516,--,0.000,0.000,0.000,131.5,100,98.6,3
237202,226521,--,0.000,0.000,0.000,131.5,100,98.6,3
237212,226530,--,0.000,0.000,0.000,131.5,100,98.6,3
237223,226533,--,0.000,0.000,0.000,131.5,100,98.6,3
237249,226544,--,0.000,0.000,0.000,131.5,100,98.6,3
237282,226558,--,0.000,0.000,0.000,131.5,100,98.6,3
237335,226570,--,0.000,0.000,0.000,131.5,100,98.6,3
237356,226583,--,0.000,0.000,0.000,131.5,100,98.6,3
237359,226571,--,0.000,0.000,0.000,131.5,100,98.6,3
237242,226515,--,0.000,0.000,0.000,131.5,100,98.6,3
236980,226420,--,0.000,0.000,0.000,131.5,100,98.6,3
236731,226309,--,0.000,0.000,0.000,131.5,100,98.6,3
236554,226259,--,0.000,0.000,0.000,131.5,100,98.6,3
236473,226230,--,0.000,0.000,0.000,131.5,100,98.6,3
236475,226227,--,0.000,0.000,0.000,131.5,100,98.6,3
236524,226254,--,0.000,0.000,0.000,131.5,100,98.6,3
236586,226289,--,0.000,0.000,0.000,131.5,100,98.6,3
236640,226306,--,0.000,0.000,0.000,131.5,100,98.6,3
236665,226311,--,0.000,0.000,0.000,131.5,100,98.6,3
236662,226312,--,0.000,0.000,0.000,131.5,100,98.6,3
236673,226323,--,0.000,0.000,0.000,131.5,100,98.6,3
236706,226324,--,0.000,0.000,0.000,131.5,100,98.6,3
236751,226336,--,0.000,0.000,0.000,131.5,100,98.6,3
236770,226347,--,0.000,0.000,0.000,131.5,100,98.6,3
236752,226341,--,0.000,0.000,0.000,131.5,100,98.6,3
236736,226339,--,0.000,0.000,0.000,131.5,100,98.6,3
236717,226340,--,0.000,0.000,0.000,131.5,100,98.6,3
236719,226333,--,0.000,0.000,0.000,131.5,100,98.6,3
236722,226331,--,0.000,0.000,0.000,131.5,100,98.6,3
236748,226333,--,0.000,0.000,0.000,131.5,100,98.6,3
236781,226335,--,0.000,0.000,0.000,131.5,100,98.7,3
236827,226356,--,0.000,0.000,0.000,131.5,100,98.7,3
236864,226360,--,0.000,0.000,0.000,131.5,100,98.7,3
236896,226376,--,0.000,0.000,0.000,131.5,100,98.7,3
236917,226387,--,0.000,0.000,0.000,131.5,100,98.7,3
236937,226387,--,0.000,0.000,0.000,131.5,100,98.7,3
236949,226389,--,0.000,0.000,0.000,131.5,100,98.7,3
236970,226396,--,0.000,0.000,0.000,131.5,100,98.7,3
236992,226393,--,0.000,0.000,0.000,131.5,100,98.7,3
237015,226397,--,0.000,0.000,0.000,131.5,100,98.7,3
237034,226409,--,0.000,0.000,0.000,131.5,100,98.7,3
237055,226416,--,0.000,0.000,0.000,131.5,100,98.7,3
237075,226418,--,0.000,0.000,0.000,131.5,100,98.7,3
237083,226412,--,0.000,0.000,0.000,131.5,100,98.7,3
237089,226412,--,0.000,0.000,0.000,131.5,100,98.7,3
237106,226419,--,0.000,0.000,0.000,131.5,100,98.7,3
237127,226431,--,0.000,0.000,0.000,131.5,100,98.7,3
237145,226431,--,0.000,0.000,0.000,131.5,100,98.7,3
237169,226436,--,0.000,0.000,0.000,131.5,100,98.7,3
237215,226448,--,0.000,0.000,0.000,131.5,100,98.7,3
237259,226459,--,0.000,0.000,0.000,131.5,100,98.7,3
237286,226467,--,0.000,0.000,0.000,131.5,100,98.7,3
237292,226470,--,0.000,0.000,0.000,131.5,100,98.7,3
237241,226464,--,0.000,0.000,0.000,131.5,100,98.7,3
237024,226362,--,0.000,0.000,0.000,131.5,100,98.7,3
236737,226253,--,0.000,0.000,0.000,131.5,100,98.7,3
236517,226167,--,0.000,0.000,0.000,131.5,100,98.7,3
236408,226121,--,0.000,0.000,0.000,131.5,100,98.7,3
236389,226115,--,0.000,0.000,0.000,131.5,100,98.7,3
236426,226142,--,0.000,0.000,0.000,131.5,100,98.7,3
236479,226170,--,0.000,0.000,0.000,131.5,100,98.7,3
236546,226193,--,0.000,0.000,0.000,131.5,100,98.7,3
236591,226206,--,0.000,0.000,0.000,131.5,100,98.7,3
236590,226204,--,0.000,0.000,0.000,131.5,100,98.7,3
236608,226200,--,0.000,0.000,0.000,131.5,100,98.7,3
236632,226212,--,0.000,0.000,0.000,131.5,100,98.7,3
236657,226230,--,0.000,0.000,0.000,131.5,100,98.7,3
236684,226237,--,0.000,0.000,0.000,131.5,100,98.7,3
236694,226240,--,0.000,0.000,0.000,131.5,100,98.7,3
236683,226223,--,0.000,0.000,0.000,131.5,100,98.7,3
236655,226217,--,0.000,0.000,0.000,131.5,100,98.7,3
236631,226206,--,0.000,0.000,0.000,131.5,100,98.7,3
236631,226204,--,0.000,0.000,0.000,131.5,100,98.7,3
236650,226207,--,0.000,0.000,0.000,131.5,100,98.7,3
236673,226209,--,0.000,0.000,0.000,131.5,100,98.7,3
236725,226225,--,0.000,0.000,0.000,131.5,100,98.7,3
236761,226245,--,0.000,0.000,0.000,131.5,100,98.7,3
236788,226245,--,0.000,0.000,0.000,131.5,100,98.7,3
236822,226263,--,0.000,0.000,0.000,131.5,100,98.7,3
236840,226265,--,0.000,0.000,0.000,131.5,100,98.7,3
236864,226278,--,0.000,0.000,0.000,132.2,100,98.7,3
236880,226283,--,0.000,0.000,0.000,132.2,100,98.7,3
236905,226291,--,0.000,0.000,0.000,132.2,100,98.7,3
236931,226302,--,0.000,0.000,0.000,132.2,100,98.7,3
236954,226295,--,0.000,0.000,0.000,132.2,100,98.7,3
236962,226295,--,0.000,0.000,0.000,132.2,100,98.7,3
236967,226288,--,0.000,0.000,0.000,132.2,100,98.7,3
236978,226295,--,0.000,0.000,0.000,132.2,100,98.7,3
236992,226303,--,0.000,0.000,0.000,132.2,100,98.7,3
237008,226300,--,0.000,0.000,0.000,132.2,100,98.7,3
237017,226294,--,0.000,0.000,0.000,132.2,100,98.7,3
237040,226302,--,0.000,0.000,0.000,132.2,100,98.7,3
237056,226317,--,0.000,0.000,0.000,132.2,100,98.7,3
237085,226332,--,0.000,0.000,0.000,132.2,100,98.7,3
237109,226346,--,0.000,0.000,0.000,132.2,100,98.7,3
237145,226355,--,0.000,0.000,0.000,132.2,100,98.7,3
237204,226361,--,0.000,0.000,0.000,132.2,100,98.7,3
237254,226387,--,0.000,0.000,0.000,132.2,100,98.7,3
237245,226377,--,0.000,0.000,0.000,132.2,100,98.7,3
237102,226325,--,0.000,0.000,0.000,132.2,100,98.7,3
236797,226206,--,0.000,0.000,0.000,132.2,100,98.7,3
236527,226085,--,0.000,0.000,0.000,132.2,100,98.7,3
236337,226022,--,0.000,0.000,0.000,132.2,100,98.7,3
236269,225994,--,0.000,0.000,0.000,132.2,100,98.7,3
236289,226009,--,0.000,0.000,0.000,132.2,100,98.7,3
236350,226033,--,0.000,0.000,0.000,132.2,100,98.7,3
236430,226063,--,0.000,0.000,0.000,132.2,100,98.7,3
236481,226090,--,0.000,0.000,0.000,132.2,100,98.7,3
236518,226091,--,0.000,0.000,0.000,132.2,100,98.7,3
236523,226096,--,0.000,0.000,0.000,132.2,100,98.7,3
236543,226099,--,0.000,0.000,0.000,132.2,100,98.7,3
236574,226121,--,0.000,0.000,0.000,132.2,100,98.7,3
236600,226127,--,0.000,0.000,0.000,132.2,100,98.7,3
236611,226122,--,0.000,0.000,0.000,132.2,100,98.7,3
236596,226116,--,0.000,0.000,0.000,132.2,100,98.7,3
236571,226100,--,0.000,0.000,0.000,132.2,100,98.7,3
236547,226086,--,0.000,0.000,0.000,132.2,100,98.7,3
236551,226085,--,0.000,0.000,0.000,132.2,100,98.7,3
236569,226089,--,0.000,0.000,0.000,132.2,100,98.7,3
236586,226095,--,0.000,0.000,0.000,132.2,100,98.7,3
236597,226098,--,0.000,0.000,0.000,132.2,100,98.7,3
236619,226118,--,0.000,0.000,0.000,132.2,100,98.7,3
