IR Count, Red Count, Green Count, X Axis Acceleration, Y Axis Acceleration, Z Axis Acceleration, Heart Rate, HR Confidence, SPO2, Algorithm Status
206115,172061,--,-0.005,0.115,-1.067,0.0,0,0.0,1
206476,172228,--,0.000,0.120,-1.084,0.0,0,0.0,1
206872,172386,--,-0.041,0.103,-1.055,0.0,0,0.0,1
207211,172535,--,-0.113,0.069,-1.037,0.0,0,0.0,1
207415,172625,--,-0.114,0.054,-1.023,0.0,0,0.0,1
207484,172638,--,-0.110,0.049,-1.021,0.0,0,0.0,1
207495,172647,--,-0.132,0.035,-1.046,0.0,0,0.0,1
207512,172645,--,-0.116,0.032,-1.054,0.0,0,0.0,1
207528,172665,--,-0.086,0.045,-1.034,0.0,0,0.0,1
221404,188647,--,-0.044,0.052,-0.993,0.0,0,0.0,1
237782,204161,--,-0.009,0.055,-0.976,0.0,0,0.0,1
242083,203831,--,0.005,0.075,-0.989,0.0,0,0.0,1
242108,203851,--,0.000,0.103,-0.997,0.0,0,0.0,1
242129,203862,--,0.000,0.120,-1.007,0.0,0,0.0,1
242196,203903,--,-0.002,0.115,-1.010,0.0,0,0.0,1
242240,203937,--,0.000,0.108,-1.012,0.0,0,0.0,1
242239,203967,--,0.003,0.110,-1.006,0.0,0,0.0,1
242243,203995,--,0.003,0.115,-0.995,0.0,0,0.0,1
242285,204037,--,0.004,0.118,-0.986,0.0,0,0.0,1
242360,204099,--,-0.002,0.116,-0.981,0.0,0,0.0,1
242500,204186,--,0.000,0.126,-0.991,0.0,0,0.0,1
242695,204309,--,0.012,0.134,-0.999,0.0,0,0.0,1
242980,204479,--,0.018,0.129,-1.001,0.0,0,0.0,1
243382,204683,--,0.020,0.125,-1.004,0.0,0,0.0,1
243880,204975,--,0.022,0.123,-1.002,0.0,0,0.0,1
244513,205366,--,0.020,0.120,-0.992,0.0,0,0.0,1
245299,205866,--,0.020,0.119,-0.986,0.0,0,0.0,1
246064,206397,--,0.020,0.116,-0.983,0.0,0,0.0,1
246688,206958,--,0.014,0.116,-0.985,0.0,0,0.0,1
247514,207558,--,0.007,0.126,-1.005,0.0,0,0.0,1
248192,208075,--,0.000,0.131,-1.018,0.0,0,0.0,1
248763,208484,--,-0.001,0.123,-1.014,0.0,0,0.0,1
249335,208903,--,-0.010,0.118,-1.006,0.0,0,0.0,1
249895,209319,--,-0.025,0.111,-0.996,0.0,0,0.0,1
250414,209684,--,-0.031,0.108,-1.008,0.0,0,0.0,1
250902,210014,--,-0.032,0.111,-1.021,0.0,0,0.0,1
251440,210326,--,-0.038,0.110,-1.014,0.0,0,0.0,1
251999,210665,--,-0.039,0.104,-1.010,0.0,0,0.0,1
252546,210997,--,-0.027,0.094,-1.005,0.0,0,0.0,1
253039,211347,--,-0.023,0.090,-1.003,0.0,0,0.0,1
253366,211627,--,-0.028,0.096,-1.011,0.0,0,0.0,1
253579,211908,--,-0.024,0.102,-1.013,0.0,0,0.0,1
253688,212191,--,-0.010,0.098,-1.006,0.0,0,0.0,1
253817,212405,--,-0.002,0.091,-1.002,0.0,0,0.0,1
253899,212525,--,-0.005,0.092,-1.001,0.0,0,0.0,1
254052,212681,--,-0.006,0.097,-1.003,0.0,0,0.0,1
254273,212898,--,-0.004,0.096,-1.005,0.0,0,0.0,1
254444,213095,--,0.000,0.095,-1.011,0.0,0,0.0,1
254674,212934,--,0.000,0.094,-1.014,0.0,0,0.0,1
254902,213168,--,-0.002,0.084,-1.011,0.0,0,0.0,1
255084,213419,--,0.000,0.074,-1.013,0.0,0,0.0,1
255213,213629,--,0.005,0.070,-1.014,0.0,0,0.0,1
255251,213761,--,0.007,0.069,-1.010,0.0,0,0.0,1
255233,213859,--,0.008,0.075,-1.009,0.0,0,0.0,1
255178,213898,--,0.008,0.076,-1.008,0.0,0,0.0,1
255085,213895,--,0.008,0.072,-1.008,0.0,0,0.0,1
254962,213821,--,0.006,0.069,-1.005,0.0,0,0.0,1
254790,213731,--,0.004,0.066,-1.002,0.0,0,0.0,1
254645,213634,--,0.005,0.068,-1.005,0.0,0,0.0,1
254464,213516,--,0.006,0.065,-1.002,0.0,0,0.0,1
254237,213350,--,0.010,0.064,-0.998,0.0,0,0.0,1
254050,213214,--,0.022,0.069,-0.997,0.0,0,0.0,1
253890,213096,--,0.044,0.068,-1.000,0.0,0,0.0,1
253744,212994,--,0.065,0.063,-1.007,0.0,0,0.0,1
253625,212901,--,0.077,0.058,-1.008,0.0,0,0.0,1
253582,212842,--,0.086,0.056,-1.009,0.0,0,0.0,1
253570,212810,--,0.093,0.056,-1.009,0.0,0,0.0,1
253601,212815,--,0.103,0.053,-1.012,0.0,0,0.0,1
253670,212830,--,0.110,0.049,-1.013,0.0,0,0.0,1
253752,212873,--,0.111,0.044,-1.013,0.0,0,0.0,1
253870,212927,--,0.105,0.046,-1.010,0.0,0,0.0,1
254069,213009,--,0.084,0.051,-1.003,0.0,0,0.0,1
254306,213154,--,0.072,0.050,-1.003,0.0,0,0.0,1
254631,213332,--,0.076,0.048,-1.011,0.0,0,0.0,1
254982,213565,--,0.076,0.048,-1.011,0.0,0,0.0,1
255409,213873,--,0.076,0.048,-1.011,0.0,0,0.0,1
255780,214157,--,0.082,0.044,-1.011,0.0,0,0.0,1
256111,214432,--,0.090,0.034,-1.008,0.0,0,0.0,1
256317,214653,--,0.096,0.026,-1.006,0.0,0,0.0,1
256446,214776,--,0.091,0.030,-1.006,0.0,0,0.0,1
256486,214888,--,0.075,0.037,-1.012,0.0,0,0.0,1
256491,214920,--,0.061,0.040,-1.018,0.0,0,0.0,1
256461,214934,--,0.054,0.037,-1.015,0.0,0,0.0,1
256407,214941,--,0.054,0.037,-1.015,0.0,0,0.0,1
256387,214966,--,0.054,0.037,-1.015,0.0,0,0.0,1
256420,214980,--,0.054,0.037,-1.015,0.0,0,0.0,1
256530,215032,--,0.049,0.035,-1.010,0.0,0,0.0,1
256699,215135,--,0.049,0.035,-1.010,0.0,0,0.0,1
256896,215250,--,0.049,0.035,-1.010,0.0,0,0.0,1
257136,215401,--,0.049,0.035,-1.010,0.0,0,0.0,1
257340,215542,--,0.044,0.039,-1.007,0.0,0,0.0,1
257438,215630,--,0.044,0.039,-1.007,0.0,0,0.0,1
257476,215673,--,0.044,0.039,-1.007,0.0,0,0.0,1
257497,215701,--,0.044,0.039,-1.007,0.0,0,0.0,1
257485,215699,--,0.035,0.043,-1.009,0.0,0,0.0,1
257434,215679,--,0.024,0.046,-1.009,0.0,0,0.0,1
257420,215665,--,0.015,0.048,-1.009,0.0,0,0.0,1
257426,215675,--,0.009,0.051,-1.010,0.0,0,0.0,1
257407,215675,--,0.001,0.054,-1.006,0.0,0,0.0,1
257418,215690,--,-0.005,0.051,-1.000,0.0,0,0.0,1
257403,215692,--,-0.006,0.049,-1.002,0.0,0,0.0,1
257383,215694,--,-0.006,0.049,-1.002,0.0,0,0.0,1
257354,215697,--,-0.006,0.049,-1.002,0.0,0,0.0,1
257346,215699,--,-0.006,0.049,-1.002,0.0,0,0.0,1
257307,215726,--,-0.006,0.049,-1.002,0.0,0,0.0,1
257265,215742,--,-0.004,0.052,-1.009,0.0,0,0.0,1
257211,215740,--,-0.004,0.052,-1.009,0.0,0,0.0,1
257171,215738,--,-0.004,0.052,-1.009,0.0,0,0.0,1
257152,215759,--,-0.004,0.052,-1.009,0.0,0,0.0,1
257183,215789,--,-0.002,0.063,-1.019,0.0,0,0.0,1
257231,215860,--,-0.002,0.063,-1.019,0.0,0,0.0,1
212992,215905,--,-0.003,0.067,-1.019,0.0,0,0.0,1
163840,215951,--,-0.008,0.058,-1.006,0.0,0,0.0,1
164648,216003,--,-0.009,0.058,-1.002,0.0,0,0.0,1
164230,216028,--,-0.007,0.066,-1.002,0.0,0,0.0,1
164234,216060,--,0.001,0.068,-1.003,0.0,0,0.0,1
164225,216068,--,0.010,0.069,-1.010,0.0,0,0.0,1
164191,216054,--,0.010,0.069,-1.010,0.0,0,0.0,1
164148,216010,--,0.010,0.069,-1.010,0.0,0,0.0,1
164159,216014,--,0.005,0.074,-1.010,0.0,0,0.0,1
164167,216031,--,0.005,0.074,-1.010,0.0,0,0.0,1
164211,216046,--,0.005,0.074,-1.010,0.0,0,0.0,1
164260,216058,--,0.005,0.074,-1.010,0.0,0,0.0,1
164289,216077,--,0.005,0.074,-1.010,0.0,0,0.0,1
164365,216115,--,-0.001,0.078,-1.004,0.0,0,0.0,1
164450,216174,--,-0.001,0.078,-1.004,0.0,0,0.0,1
164515,216231,--,-0.001,0.078,-1.004,0.0,0,0.0,1
164552,216233,--,-0.001,0.078,-1.004,0.0,0,0.0,1
164566,216249,--,-0.002,0.079,-1.003,0.0,0,0.0,1
164619,216229,--,-0.003,0.077,-1.006,0.0,0,0.0,1
164664,216205,--,-0.002,0.074,-1.010,0.0,0,0.0,1
164716,216181,--,-0.001,0.073,-1.010,0.0,0,0.0,1
164816,216218,--,0.000,0.073,-1.009,0.0,0,0.0,1
164953,216341,--,-0.001,0.077,-1.006,0.0,0,0.0,1
165163,216560,--,-0.004,0.080,-1.004,0.0,0,0.0,1
165372,216795,--,-0.004,0.080,-1.004,0.0,0,0.0,1
165541,217022,--,-0.004,0.080,-1.004,0.0,0,0.0,1
165678,217191,--,-0.004,0.080,-1.004,0.0,0,0.0,1
165798,217349,--,-0.004,0.079,-1.006,0.0,0,0.0,1
165934,217494,--,-0.004,0.079,-1.006,0.0,0,0.0,1
166079,217643,--,-0.004,0.079,-1.006,0.0,0,0.0,1
166265,217800,--,-0.004,0.079,-1.006,0.0,0,0.0,1
166453,217966,--,-0.004,0.077,-1.010,0.0,0,0.0,1
166652,218179,--,-0.004,0.077,-1.010,0.0,0,0.0,1
166756,218403,--,-0.004,0.077,-1.010,0.0,0,0.0,1
166804,218670,--,-0.003,0.076,-1.012,0.0,0,0.0,1
166961,219005,--,-0.003,0.077,-1.010,0.0,0,0.0,1
167189,219413,--,-0.006,0.080,-1.007,0.0,0,0.0,1
167413,219871,--,-0.007,0.081,-1.005,0.0,0,0.0,1
167611,220255,--,-0.005,0.081,-1.008,0.0,0,0.0,1
167765,220553,--,0.000,0.081,-1.009,0.0,0,0.0,1
167974,220748,--,0.000,0.081,-1.009,0.0,0,0.0,1
168198,220751,--,0.000,0.081,-1.009,0.0,0,0.0,1
168403,220878,--,0.009,0.090,-1.002,0.0,0,0.0,1
168500,220898,--,0.009,0.090,-1.002,0.0,0,0.0,1
168569,220931,--,0.009,0.090,-1.002,0.0,0,0.0,1
168567,220948,--,0.009,0.090,-1.002,0.0,0,0.0,1
168568,221050,--,0.004,0.094,-1.000,0.0,0,0.0,1
168601,221087,--,0.004,0.094,-1.000,0.0,0,0.0,1
168695,221202,--,0.004,0.094,-1.000,0.0,0,0.0,1
168750,221374,--,0.004,0.094,-1.000,0.0,0,0.0,1
168694,221359,--,-0.008,0.088,-1.006,0.0,0,0.0,1
168613,221252,--,-0.008,0.086,-1.007,0.0,0,0.0,1
168562,221095,--,-0.010,0.082,-1.009,0.0,0,0.0,1
168653,220816,--,-0.010,0.073,-1.008,0.0,0,0.0,1
168654,220310,--,-0.006,0.075,-1.004,0.0,0,0.0,1
168520,220037,--,-0.006,0.081,-1.000,0.0,0,0.0,1
168289,219844,--,-0.004,0.080,-1.002,0.0,0,0.0,1
168152,219779,--,-0.004,0.080,-1.002,0.0,0,0.0,1
167900,219726,--,-0.004,0.080,-1.002,0.0,0,0.0,1
167604,219525,--,-0.004,0.080,-1.002,0.0,0,0.0,1
167334,219310,--,-0.004,0.080,-1.002,0.0,0,0.0,1
167128,219184,--,0.003,0.080,-1.011,0.0,0,0.0,1
166818,218919,--,0.003,0.080,-1.011,0.0,0,0.0,1
166440,218508,--,0.003,0.080,-1.011,0.0,0,0.0,1
165906,217941,--,0.003,0.080,-1.011,0.0,0,0.0,1
165348,217141,--,0.008,0.083,-1.012,0.0,0,0.0,1
165643,217563,--,0.008,0.083,-1.012,0.0,0,0.0,1
166132,218214,--,0.008,0.083,-1.012,0.0,0,0.0,1
166682,218851,--,0.004,0.084,-1.007,0.0,0,0.0,1
167185,219359,--,0.001,0.081,-1.003,0.0,0,0.0,1
167618,219849,--,0.000,0.083,-1.005,0.0,0,0.0,1
167808,220153,--,-0.001,0.092,-1.010,0.0,0,0.0,1
167867,220463,--,0.001,0.091,-1.011,0.0,0,0.0,1
167800,220649,--,0.001,0.088,-1.005,0.0,0,0.0,1
167883,220722,--,0.001,0.088,-1.005,0.0,0,0.0,1
168190,220911,--,-0.001,0.086,-1.001,0.0,0,0.0,1
168893,221182,--,-0.001,0.086,-1.001,0.0,0,0.0,1
169573,221560,--,-0.001,0.086,-1.001,0.0,0,0.0,1
170276,222206,--,-0.001,0.086,-1.001,0.0,0,0.0,1
170854,222838,--,-0.008,0.082,-0.999,0.0,0,0.0,1
171221,223253,--,-0.008,0.082,-0.999,0.0,0,0.0,1
171483,223639,--,-0.008,0.082,-0.999,0.0,0,0.0,1
171740,224027,--,-0.008,0.082,-0.999,0.0,0,0.0,1
171934,224426,--,-0.023,0.066,-0.987,0.0,0,0.0,1
172129,224757,--,-0.023,0.066,-0.987,0.0,0,0.0,1
172383,225159,--,-0.017,0.057,-0.992,0.0,0,0.0,1
172628,225595,--,0.015,0.060,-1.020,0.0,0,0.0,1
172865,226045,--,0.035,0.054,-1.025,0.0,0,0.0,1
173074,226458,--,0.033,0.051,-1.018,0.0,0,0.0,1
173254,226799,--,0.017,0.054,-1.013,0.0,0,0.0,1
173365,227081,--,0.004,0.061,-1.011,0.0,0,0.0,1
173486,227322,--,0.004,0.061,-1.011,0.0,0,0.0,1
173542,227512,--,0.004,0.061,-1.011,0.0,0,0.0,1
173578,227639,--,0.004,0.061,-1.011,0.0,0,0.0,1
173562,227698,--,0.005,0.059,-1.009,0.0,0,0.0,1
173529,227735,--,0.005,0.059,-1.009,0.0,0,0.0,1
173473,227741,--,0.005,0.059,-1.009,0.0,0,0.0,1
173448,227779,--,0.005,0.059,-1.009,0.0,0,0.0,1
173429,227828,--,0.018,0.056,-1.012,0.0,0,0.0,1
173403,227862,--,0.018,0.056,-1.012,0.0,0,0.0,1
173336,227856,--,0.018,0.056,-1.012,0.0,0,0.0,1
173273,227852,--,0.018,0.056,-1.012,0.0,0,0.0,1
173191,227819,--,0.020,0.063,-1.008,0.0,0,0.0,1
173122,227799,--,0.000,0.063,-1.006,0.0,0,0.0,1
173087,227788,--,-0.013,0.056,-1.011,0.0,0,0.0,1
173061,227772,--,-0.012,0.051,-1.008,0.0,0,0.0,1
173069,227757,--,-0.001,0.039,-1.006,0.0,0,0.0,1
173027,227701,--,0.008,0.030,-1.006,0.0,0,0.0,1
172931,227586,--,0.008,0.030,-1.006,0.0,0,0.0,1
172861,227494,--,0.014,0.030,-1.008,0.0,0,0.0,1
172817,227437,--,0.014,0.030,-1.008,0.0,0,0.0,1
172748,227380,--,0.014,0.030,-1.008,0.0,0,0.0,1
172754,227393,--,0.014,0.030,-1.008,0.0,0,0.0,1
172749,227436,--,0.015,0.032,-1.009,0.0,0,0.0,1
172730,227469,--,0.015,0.032,-1.009,0.0,0,0.0,1
172709,227530,--,0.015,0.032,-1.009,0.0,0,0.0,1
172657,227545,--,0.015,0.032,-1.009,0.0,0,0.0,1
172570,227508,--,0.018,0.032,-1.010,0.0,0,0.0,1
172468,227460,--,0.018,0.032,-1.010,0.0,0,0.0,1
172361,227423,--,0.026,0.030,-1.009,0.0,0,0.0,1
172243,227328,--,0.033,0.029,-1.008,0.0,0,0.0,1
172114,227218,--,0.038,0.027,-1.009,0.0,0,0.0,1
171994,227130,--,0.060,0.026,-1.001,0.0,0,0.0,1
171915,227082,--,0.068,0.026,-1.005,0.0,0,0.0,1
171824,227001,--,0.050,0.020,-1.022,0.0,0,0.0,1
171726,226912,--,0.050,0.020,-1.022,0.0,0,0.0,1
171595,226801,--,0.050,0.020,-1.022,0.0,0,0.0,1
171436,226661,--,0.042,0.024,-1.026,0.0,0,0.0,1
171291,226536,--,0.042,0.024,-1.026,0.0,0,0.0,1
171165,226407,--,0.042,0.024,-1.026,0.0,0,0.0,1
171082,226292,--,0.042,0.024,-1.026,0.0,0,0.0,1
171019,226232,--,0.042,0.024,-1.026,0.0,0,0.0,1
171002,226161,--,0.029,0.035,-1.018,0.0,0,0.0,1
170987,226113,--,0.029,0.035,-1.018,0.0,0,0.0,1
170952,226062,--,0.029,0.035,-1.018,0.0,0,0.0,1
170909,226003,--,0.016,0.030,-1.010,0.0,0,0.0,1
170834,225893,--,0.027,0.016,-1.008,0.0,0,0.0,1
170833,225836,--,0.029,0.006,-1.008,0.0,0,0.0,1
170942,225881,--,0.008,0.004,-1.010,0.0,0,0.0,1
171021,225905,--,0.002,0.007,-1.011,0.0,0,0.0,1
171095,225953,--,0.010,0.009,-1.010,0.0,0,0.0,1
171168,225989,--,0.010,0.009,-1.010,0.0,0,0.0,1
171204,226007,--,0.029,0.010,-1.008,0.0,0,0.0,1
171232,226019,--,0.029,0.010,-1.008,0.0,0,0.0,1
171208,225981,--,0.029,0.010,-1.008,0.0,0,0.0,1
171195,225949,--,0.029,0.010,-1.008,0.0,0,0.0,1
171144,225914,--,0.058,0.012,-1.010,0.0,0,0.0,1
171135,225897,--,0.058,0.012,-1.010,0.0,0,0.0,1
171110,225894,--,0.058,0.012,-1.010,0.0,0,0.0,1
171135,225909,--,0.058,0.012,-1.010,0.0,0,0.0,1
171139,225935,--,0.074,0.015,-1.009,0.0,0,0.0,1
171161,225959,--,0.074,0.015,-1.009,0.0,0,0.0,1
171160,225983,--,0.074,0.015,-1.009,0.0,0,0.0,1
171141,226037,--,0.059,0.016,-1.001,0.0,0,0.0,1
171103,226080,--,0.034,0.017,-0.994,0.0,0,0.0,1
171029,226135,--,0.013,0.013,-1.016,0.0,0,0.0,1
170896,226103,--,-0.017,0.020,-1.047,0.0,0,0.0,1
170751,226047,--,0.030,0.025,-1.032,0.0,0,0.0,1
170634,226034,--,0.121,-0.012,-1.003,0.0,0,0.0,1
170577,226026,--,0.121,-0.012,-1.003,0.0,0,0.0,1
170646,226137,--,0.121,-0.012,-1.003,0.0,0,0.0,1
170651,226182,--,0.119,-0.027,-0.997,0.0,0,0.0,1
170525,226092,--,0.119,-0.027,-0.997,0.0,0,0.0,1
170292,225924,--,0.119,-0.027,-0.997,0.0,0,0.0,1
170034,225710,--,0.119,-0.027,-0.997,0.0,0,0.0,1
169677,225415,--,0.091,0.011,-0.980,0.0,0,0.0,1
169297,225081,--,0.091,0.011,-0.980,0.0,0,0.0,1
169062,224836,--,0.091,0.011,-0.980,0.0,0,0.0,1
169005,224720,--,0.091,0.011,-0.980,0.0,0,0.0,1
168920,224620,--,0.063,0.023,-0.976,0.0,0,0.0,1
168884,224573,--,0.028,0.002,-1.003,0.0,0,0.0,1
168979,224645,--,0.041,-0.016,-1.027,0.0,0,0.0,1
168947,224603,--,0.047,-0.023,-1.031,0.0,0,0.0,1
168702,224411,--,0.032,-0.019,-1.022,0.0,0,0.0,1
168439,224180,--,0.041,-0.013,-1.016,0.0,0,0.0,1
168311,224012,--,0.038,-0.010,-1.012,0.0,0,0.0,1
168171,223860,--,0.038,-0.010,-1.012,0.0,0,0.0,1
167993,223654,--,0.038,-0.010,-1.012,0.0,0,0.0,1
167784,223425,--,0.038,-0.010,-1.012,0.0,0,0.0,1
167312,222978,--,0.028,-0.009,-1.010,0.0,0,0.0,1
166737,222380,--,0.028,-0.009,-1.010,0.0,0,0.0,1
166159,221742,--,0.028,-0.009,-1.010,0.0,0,0.0,1
165577,221124,--,0.028,-0.009,-1.010,0.0,0,0.0,1
165018,220540,--,0.011,-0.011,-1.009,0.0,0,0.0,1
164574,220048,--,0.011,-0.011,-1.009,0.0,0,0.0,1
164201,219680,--,0.011,-0.011,-1.009,0.0,0,0.0,1
163870,219348,--,0.011,-0.011,-1.009,0.0,0,0.0,1
163582,219056,--,0.009,-0.011,-1.010,0.0,0,0.0,1
163352,218827,--,0.019,-0.004,-1.010,0.0,0,0.0,1
163156,218649,--,0.028,-0.003,-1.009,0.0,0,0.0,1
162999,218505,--,0.031,-0.005,-1.011,0.0,0,0.0,1
162890,218383,--,0.035,-0.010,-1.015,0.0,0,0.0,1
162852,218338,--,0.044,-0.015,-1.015,0.0,0,0.0,1
162864,218346,--,0.044,-0.015,-1.015,0.0,0,0.0,1
162860,218345,--,0.037,-0.013,-1.010,0.0,0,0.0,1
162874,218372,--,0.037,-0.013,-1.010,0.0,0,0.0,1
162847,218381,--,0.037,-0.013,-1.010,0.0,0,0.0,1
162813,218371,--,0.037,-0.013,-1.010,0.0,0,0.0,1
162783,218349,--,0.020,-0.017,-1.013,0.0,0,0.0,1
162762,218341,--,0.020,-0.017,-1.013,0.0,0,0.0,1
162759,218348,--,0.020,-0.017,-1.013,0.0,0,0.0,1
162766,218358,--,0.020,-0.017,-1.013,0.0,0,0.0,1
162760,218348,--,0.018,-0.014,-1.014,0.0,0,0.0,1
162734,218328,--,0.018,-0.014,-1.014,0.0,0,0.0,1
162725,218318,--,0.037,-0.002,-1.006,0.0,0,0.0,1
162695,218284,--,0.037,0.005,-0.997,0.0,0,0.0,1
162672,218272,--,0.037,-0.003,-1.006,0.0,0,0.0,1
162675,218249,--,0.039,-0.010,-1.013,0.0,0,0.0,1
162691,218253,--,0.041,-0.013,-1.013,0.0,0,0.0,1
162713,218247,--,0.042,-0.019,-1.019,0.0,0,0.0,1
162727,218245,--,0.042,-0.019,-1.019,0.0,0,0.0,1
162722,218242,--,0.042,-0.019,-1.019,0.0,0,0.0,1
162726,218272,--,0.042,-0.019,-1.019,0.0,0,0.0,1
162711,218303,--,0.037,-0.022,-1.015,0.0,0,0.0,1
162720,218356,--,0.037,-0.022,-1.015,0.0,0,0.0,1
162705,218380,--,0.037,-0.022,-1.015,0.0,0,0.0,1
162658,218406,--,0.037,-0.022,-1.015,0.0,0,0.0,1
162609,218450,--,0.035,-0.026,-1.013,0.0,0,0.0,1
162602,218483,--,0.035,-0.026,-1.013,0.0,0,0.0,1
162572,218474,--,0.035,-0.026,-1.013,0.0,0,0.0,1
162560,218523,--,0.035,-0.026,-1.013,0.0,0,0.0,1
162557,218568,--,0.038,-0.020,-1.013,0.0,0,0.0,1
162553,218590,--,0.041,-0.013,-1.010,0.0,0,0.0,1
162551,218585,--,0.043,-0.009,-1.008,0.0,0,0.0,1
162523,218563,--,0.043,-0.010,-1.009,0.0,0,0.0,1
162514,218525,--,0.040,-0.011,-1.011,0.0,0,0.0,1
162503,218504,--,0.036,-0.012,-1.012,0.0,0,0.0,1
162474,218487,--,0.026,-0.012,-1.011,0.0,0,0.0,1
162464,218467,--,0.026,-0.012,-1.011,0.0,0,0.0,1
162434,218414,--,0.026,-0.012,-1.011,0.0,0,0.0,1
162420,218381,--,0.026,-0.012,-1.011,0.0,0,0.0,1
162385,218334,--,0.026,-0.012,-1.011,0.0,0,0.0,1
162356,218305,--,0.020,-0.011,-1.010,0.0,0,0.0,1
162339,218279,--,0.020,-0.011,-1.010,0.0,0,0.0,1
162311,218263,--,0.020,-0.011,-1.010,0.0,0,0.0,1
162301,218237,--,0.023,-0.010,-1.009,0.0,0,0.0,1
162275,218223,--,0.023,-0.010,-1.009,0.0,0,0.0,1
162255,218204,--,0.023,-0.010,-1.009,0.0,0,0.0,1
162247,218190,--,0.029,-0.009,-1.009,0.0,0,0.0,1
162234,218167,--,0.029,-0.008,-1.009,0.0,0,0.0,1
162219,218133,--,0.028,-0.009,-1.010,0.0,0,0.0,1
162234,218122,--,0.028,-0.008,-1.010,0.0,0,0.0,1
162243,218098,--,0.027,-0.007,-1.009,0.0,0,0.0,1
162254,218080,--,0.037,-0.009,-1.010,0.0,0,0.0,1
162251,218064,--,0.037,-0.009,-1.010,0.0,0,0.0,1
162249,218048,--,0.037,-0.009,-1.010,0.0,0,0.0,1
162254,218031,--,0.043,-0.010,-1.011,0.0,0,0.0,1
162260,218012,--,0.043,-0.010,-1.011,0.0,0,0.0,1
162260,218004,--,0.043,-0.010,-1.011,0.0,0,0.0,1
162260,217987,--,0.043,-0.010,-1.011,0.0,0,0.0,1
162266,217971,--,0.037,-0.010,-1.010,0.0,0,0.0,1
162276,217972,--,0.037,-0.010,-1.010,0.0,0,0.0,1
162288,217998,--,0.037,-0.010,-1.010,0.0,0,0.0,1
162309,218035,--,0.037,-0.010,-1.010,0.0,0,0.0,1
162333,218116,--,0.033,-0.010,-1.010,0.0,0,0.0,1
162319,218138,--,0.034,-0.010,-1.009,0.0,0,0.0,1
162297,218135,--,0.049,-0.010,-1.010,0.0,0,0.0,1
162270,218108,--,0.057,-0.010,-1.011,0.0,0,0.0,1
162248,218090,--,0.050,-0.009,-1.010,0.0,0,0.0,1
162229,218077,--,0.046,-0.009,-1.009,0.0,0,0.0,1
162224,218098,--,0.046,-0.009,-1.009,0.0,0,0.0,1
162250,218124,--,0.043,-0.009,-1.007,0.0,0,0.0,1
162300,218178,--,0.043,-0.009,-1.007,0.0,0,0.0,1
162344,218245,--,0.043,-0.009,-1.007,0.0,0,0.0,1
162392,218317,--,0.043,-0.009,-1.007,0.0,0,0.0,1
162416,218367,--,0.050,-0.014,-1.011,0.0,0,0.0,1
162426,218369,--,0.050,-0.014,-1.011,0.0,0,0.0,1
162423,218362,--,0.050,-0.014,-1.011,0.0,0,0.0,1
162413,218349,--,0.050,-0.014,-1.011,0.0,0,0.0,1
162402,218346,--,0.057,-0.018,-1.014,0.0,0,0.0,1
162384,218355,--,0.057,-0.018,-1.014,0.0,0,0.0,1
162376,218374,--,0.057,-0.018,-1.014,0.0,0,0.0,1
162384,218425,--,0.055,-0.015,-1.012,0.0,0,0.0,1
162402,218464,--,0.052,-0.013,-1.011,0.0,0,0.0,1
162406,218488,--,0.049,-0.012,-1.010,0.0,0,0.0,1
162423,218513,--,0.049,-0.011,-1.010,0.0,0,0.0,1
162426,218527,--,0.051,-0.010,-1.010,0.0,0,0.0,1
162414,218518,--,0.054,-0.010,-1.010,0.0,0,0.0,1
162405,218513,--,0.054,-0.010,-1.010,0.0,0,0.0,1
162413,218504,--,0.054,-0.010,-1.010,0.0,0,0.0,1
162406,218498,--,0.052,-0.010,-1.010,0.0,0,0.0,1
162403,218500,--,0.052,-0.010,-1.010,0.0,0,0.0,1
162391,218492,--,0.052,-0.010,-1.010,0.0,0,0.0,1
162373,218469,--,0.052,-0.010,-1.010,0.0,0,0.0,1
162359,218445,--,0.046,-0.010,-1.010,0.0,0,0.0,1
162336,218414,--,0.046,-0.010,-1.010,0.0,0,0.0,1
162331,218405,--,0.046,-0.010,-1.010,0.0,0,0.0,1
162311,218358,--,0.046,-0.010,-1.010,0.0,0,0.0,1
162285,218331,--,0.045,-0.009,-1.009,0.0,0,0.0,1
162261,218297,--,0.045,-0.007,-1.009,0.0,0,0.0,1
162232,218258,--,0.045,-0.008,-1.009,0.0,0,0.0,1
162228,218223,--,0.049,-0.008,-1.010,0.0,0,0.0,1
162209,218202,--,0.051,-0.009,-1.011,0.0,0,0.0,1
162208,218190,--,0.046,-0.010,-1.011,0.0,0,0.0,1
162217,218165,--,0.043,-0.011,-1.010,0.0,0,0.0,1
162195,218143,--,0.043,-0.011,-1.010,0.0,0,0.0,1
162187,218121,--,0.043,-0.011,-1.010,0.0,0,0.0,1
162169,218109,--,0.043,-0.011,-1.010,0.0,0,0.0,1
162178,218101,--,0.043,-0.011,-1.010,0.0,0,0.0,1
162178,218116,--,0.043,-0.011,-1.010,0.0,0,0.0,1
162169,218115,--,0.043,-0.011,-1.010,0.0,0,0.0,1
162168,218111,--,0.043,-0.011,-1.010,0.0,0,0.0,1
162148,218093,--,0.045,-0.010,-1.010,0.0,0,0.0,1
162125,218069,--,0.045,-0.010,-1.010,0.0,0,0.0,1
162114,218053,--,0.045,-0.010,-1.010,0.0,0,0.0,1
162101,218023,--,0.045,-0.010,-1.010,0.0,0,0.0,1
162100,218003,--,0.046,-0.010,-1.010,0.0,0,0.0,1
162085,217993,--,0.044,-0.010,-1.010,0.0,0,0.0,1
162087,217998,--,0.045,-0.010,-1.010,0.0,0,0.0,1
162090,217990,--,0.045,-0.010,-1.010,0.0,0,0.0,1
162096,217988,--,0.044,-0.010,-1.009,0.0,0,0.0,1
162092,217984,--,0.046,-0.011,-1.009,0.0,0,0.0,1
162103,217974,--,0.046,-0.011,-1.009,0.0,0,0.0,1
162095,217971,--,0.049,-0.011,-1.010,0.0,0,0.0,1
162113,217976,--,0.049,-0.011,-1.010,0.0,0,0.0,1
162089,217954,--,0.049,-0.011,-1.010,0.0,0,0.0,1
162092,217933,--,0.049,-0.011,-1.010,0.0,0,0.0,1
162089,217945,--,0.050,-0.010,-1.010,0.0,0,0.0,1
162094,217944,--,0.050,-0.010,-1.010,0.0,0,0.0,1
162094,217923,--,0.050,-0.010,-1.010,0.0,0,0.0,1
162092,217925,--,0.050,-0.010,-1.010,0.0,0,0.0,1
162087,217924,--,0.048,-0.010,-1.010,0.0,0,0.0,1
162099,217910,--,0.048,-0.010,-1.010,0.0,0,0.0,1
162100,217903,--,0.048,-0.010,-1.010,0.0,0,0.0,1
162098,217894,--,0.049,-0.010,-1.009,0.0,0,0.0,1
162095,217870,--,0.049,-0.010,-1.010,0.0,0,0.0,1
162093,217847,--,0.046,-0.010,-1.010,0.0,0,0.0,1
162081,217837,--,0.046,-0.010,-1.010,0.0,0,0.0,1
162080,217827,--,0.045,-0.010,-1.009,0.0,0,0.0,1
162082,217817,--,0.045,-0.010,-1.009,0.0,0,0.0,1
162078,217803,--,0.045,-0.010,-1.009,0.0,0,0.0,1
162082,217793,--,0.045,-0.010,-1.009,0.0,0,0.0,1
162081,217795,--,0.052,-0.010,-1.009,0.0,0,0.0,1
162073,217802,--,0.052,-0.010,-1.009,0.0,0,0.0,1
162081,217780,--,0.052,-0.010,-1.009,0.0,0,0.0,1
162067,217785,--,0.055,-0.010,-1.010,0.0,0,0.0,1
162062,217783,--,0.055,-0.010,-1.010,0.0,0,0.0,1
162062,217777,--,0.055,-0.010,-1.010,0.0,0,0.0,1
162045,217775,--,0.055,-0.010,-1.010,0.0,0,0.0,1
162018,217767,--,0.048,-0.010,-1.010,0.0,0,0.0,1
161982,217753,--,0.045,-0.010,-1.010,0.0,0,0.0,1
161966,217762,--,0.045,-0.010,-1.009,0.0,0,0.0,1
161934,217751,--,0.047,-0.010,-1.009,0.0,0,0.0,1
161909,217739,--,0.048,-0.010,-1.009,0.0,0,0.0,1
161881,217715,--,0.048,-0.010,-1.010,0.0,0,0.0,1
161857,217714,--,0.048,-0.010,-1.010,0.0,0,0.0,1
161857,217696,--,0.050,-0.011,-1.010,0.0,0,0.0,1
161844,217698,--,0.050,-0.011,-1.010,0.0,0,0.0,1
161851,217712,--,0.050,-0.011,-1.010,0.0,0,0.0,1
161867,217705,--,0.050,-0.011,-1.010,0.0,0,0.0,1
161886,217728,--,0.050,-0.011,-1.010,0.0,0,0.0,1
161886,217736,--,0.052,-0.011,-1.010,0.0,0,0.0,1
161892,217729,--,0.052,-0.011,-1.010,0.0,0,0.0,1
161899,217734,--,0.052,-0.011,-1.010,0.0,0,0.0,1
161908,217734,--,0.052,-0.011,-1.010,0.0,0,0.0,1
161907,217745,--,0.051,-0.011,-1.010,0.0,0,0.0,1
161904,217748,--,0.051,-0.011,-1.010,0.0,0,0.0,1
161908,217760,--,0.051,-0.010,-1.010,0.0,0,0.0,1
161921,217763,--,0.053,-0.011,-1.009,0.0,0,0.0,1
161908,217758,--,0.054,-0.012,-1.010,0.0,0,0.0,1
161909,217757,--,0.050,-0.013,-1.010,0.0,0,0.0,1
161906,217762,--,0.046,-0.013,-1.010,0.0,0,0.0,1
161922,217763,--,0.048,-0.012,-1.009,0.0,0,0.0,1
161938,217769,--,0.048,-0.012,-1.009,0.0,0,0.0,1
161939,217764,--,0.048,-0.012,-1.009,0.0,0,0.0,1
161928,217773,--,0.049,-0.012,-1.009,0.0,0,0.0,1
161938,217759,--,0.049,-0.012,-1.009,0.0,0,0.0,1
161943,217749,--,0.049,-0.012,-1.009,0.0,0,0.0,1
161924,217752,--,0.049,-0.012,-1.009,0.0,0,0.0,1
161925,217745,--,0.047,-0.012,-1.009,0.0,0,0.0,1
161909,217729,--,0.047,-0.012,-1.009,0.0,0,0.0,1
161899,217717,--,0.047,-0.012,-1.009,0.0,0,0.0,1
161912,217723,--,0.047,-0.012,-1.009,0.0,0,0.0,1
161908,217724,--,0.047,-0.012,-1.009,0.0,0,0.0,1
161898,217715,--,0.050,-0.012,-1.010,0.0,0,0.0,1
161908,217716,--,0.052,-0.011,-1.010,0.0,0,0.0,1
161911,217710,--,0.051,-0.012,-1.010,0.0,0,0.0,1
161905,217713,--,0.050,-0.012,-1.010,0.0,0,0.0,1
161912,217712,--,0.049,-0.011,-1.010,0.0,0,0.0,1
161910,217701,--,0.049,-0.012,-1.009,0.0,0,0.0,1
161917,217690,--,0.049,-0.012,-1.008,0.0,0,0.0,1
161915,217691,--,0.049,-0.012,-1.008,0.0,0,0.0,1
161910,217678,--,0.049,-0.012,-1.008,0.0,0,0.0,1
161915,217666,--,0.049,-0.012,-1.008,0.0,0,0.0,1
161914,217657,--,0.051,-0.014,-1.009,0.0,0,0.0,1
161911,217644,--,0.051,-0.014,-1.009,0.0,0,0.0,1
161907,217632,--,0.051,-0.014,-1.009,0.0,0,0.0,1
161909,217629,--,0.051,-0.014,-1.009,0.0,0,0.0,1
161908,217618,--,0.054,-0.014,-1.010,0.0,0,0.0,1
161917,217626,--,0.054,-0.014,-1.010,0.0,0,0.0,1
161915,217615,--,0.054,-0.014,-1.010,0.0,0,0.0,1
161921,217610,--,0.054,-0.013,-1.010,0.0,0,0.0,1
161933,217615,--,0.052,-0.013,-1.009,0.0,0,0.0,1
161943,217628,--,0.051,-0.013,-1.009,0.0,0,0.0,1
161934,217620,--,0.054,-0.013,-1.009,0.0,0,0.0,1
161931,217622,--,0.057,-0.013,-1.009,0.0,0,0.0,1
161926,217610,--,0.057,-0.014,-1.010,0.0,0,0.0,1
161928,217614,--,0.057,-0.014,-1.010,0.0,0,0.0,1
161928,217603,--,0.057,-0.014,-1.010,0.0,0,0.0,1
161934,217601,--,0.055,-0.014,-1.010,0.0,0,0.0,1
161923,217605,--,0.055,-0.014,-1.010,0.0,0,0.0,1
161942,217608,--,0.055,-0.014,-1.010,0.0,0,0.0,1
161928,217606,--,0.055,-0.014,-1.010,0.0,0,0.0,1
161939,217601,--,0.052,-0.014,-1.009,0.0,0,0.0,1
161931,217594,--,0.052,-0.014,-1.009,0.0,0,0.0,1
161946,217585,--,0.052,-0.014,-1.009,0.0,0,0.0,1
161939,217586,--,0.052,-0.014,-1.009,0.0,0,0.0,1
161946,217596,--,0.052,-0.014,-1.009,0.0,0,0.0,1
161934,217586,--,0.053,-0.014,-1.010,0.0,0,0.0,1
161937,217573,--,0.054,-0.014,-1.009,0.0,0,0.0,1
161945,217570,--,0.053,-0.015,-1.009,0.0,0,0.0,1
161949,217572,--,0.053,-0.014,-1.009,0.0,0,0.0,1
161947,217569,--,0.053,-0.015,-1.009,0.0,0,0.0,1
161951,217562,--,0.050,-0.015,-1.009,0.0,0,0.0,1
161962,217576,--,0.050,-0.015,-1.009,0.0,0,0.0,1
161959,217571,--,0.050,-0.015,-1.009,0.0,0,0.0,1
161961,217557,--,0.050,-0.015,-1.009,0.0,0,0.0,1
161976,217575,--,0.052,-0.015,-1.009,0.0,0,0.0,1
161964,217566,--,0.052,-0.015,-1.009,0.0,0,0.0,1
161958,217567,--,0.052,-0.015,-1.009,0.0,0,0.0,1
161950,217555,--,0.052,-0.015,-1.009,0.0,0,0.0,1
161939,217558,--,0.053,-0.015,-1.009,0.0,0,0.0,1
161921,217538,--,0.053,-0.015,-1.009,0.0,0,0.0,1
161891,217527,--,0.053,-0.015,-1.009,0.0,0,0.0,1
161839,217512,--,0.053,-0.015,-1.009,0.0,0,0.0,1
161793,217481,--,0.055,-0.015,-1.009,0.0,0,0.0,1
161769,217474,--,0.056,-0.015,-1.009,0.0,0,0.0,1
161736,217456,--,0.055,-0.014,-1.009,0.0,0,0.0,1
161725,217445,--,0.053,-0.014,-1.010,0.0,0,0.0,1
161712,217445,--,0.054,-0.015,-1.010,0.0,0,0.0,1
161703,217439,--,0.055,-0.016,-1.009,0.0,0,0.0,1
161703,217441,--,0.055,-0.016,-1.009,0.0,0,0.0,1
161712,217443,--,0.055,-0.016,-1.008,0.0,0,0.0,1
161720,217457,--,0.055,-0.016,-1.008,0.0,0,0.0,1
161723,217447,--,0.055,-0.016,-1.008,0.0,0,0.0,1
161729,217450,--,0.055,-0.015,-1.009,0.0,0,0.0,1
161724,217460,--,0.055,-0.015,-1.009,0.0,0,0.0,1
161723,217457,--,0.055,-0.015,-1.009,0.0,0,0.0,1
161738,217460,--,0.055,-0.015,-1.009,0.0,0,0.0,1
161744,217475,--,0.054,-0.015,-1.008,0.0,0,0.0,1
161738,217463,--,0.054,-0.015,-1.008,0.0,0,0.0,1
161728,217468,--,0.054,-0.015,-1.008,0.0,0,0.0,1
161734,217452,--,0.055,-0.015,-1.009,0.0,0,0.0,1
161733,217441,--,0.058,-0.015,-1.009,0.0,0,0.0,1
161728,217448,--,0.058,-0.015,-1.010,0.0,0,0.0,1
161733,217445,--,0.054,-0.015,-1.009,0.0,0,0.0,1
161737,217437,--,0.053,-0.015,-1.009,0.0,0,0.0,1
161747,217429,--,0.052,-0.016,-1.010,0.0,0,0.0,1
161750,217438,--,0.052,-0.016,-1.010,0.0,0,0.0,1
161764,217458,--,0.052,-0.016,-1.010,0.0,0,0.0,1
161775,217443,--,0.052,-0.016,-1.010,0.0,0,0.0,1
161766,217446,--,0.052,-0.016,-1.010,0.0,0,0.0,1
161766,217455,--,0.052,-0.016,-1.010,0.0,0,0.0,1
161755,217443,--,0.052,-0.016,-1.010,0.0,0,0.0,1
161752,217430,--,0.052,-0.016,-1.010,0.0,0,0.0,1
161753,217417,--,0.052,-0.016,-1.011,0.0,0,0.0,1
161748,217409,--,0.052,-0.016,-1.011,0.0,0,0.0,1
161733,217414,--,0.052,-0.016,-1.011,0.0,0,0.0,1
161736,217407,--,0.052,-0.016,-1.011,0.0,0,0.0,1
161743,217409,--,0.055,-0.016,-1.011,0.0,0,0.0,1
161742,217411,--,0.054,-0.016,-1.010,0.0,0,0.0,1
161747,217401,--,0.060,-0.016,-1.010,0.0,0,0.0,1
161745,217412,--,0.064,-0.017,-1.010,0.0,0,0.0,1
161751,217407,--,0.058,-0.016,-1.009,0.0,0,0.0,1
161756,217414,--,0.057,-0.016,-1.008,0.0,0,0.0,1
161756,217412,--,0.061,-0.017,-1.008,0.0,0,0.0,1
161762,217418,--,0.061,-0.017,-1.008,0.0,0,0.0,1
161770,217403,--,0.061,-0.017,-1.008,0.0,0,0.0,1
161790,217414,--,0.061,-0.017,-1.008,0.0,0,0.0,1
161784,217403,--,0.062,-0.017,-1.009,0.0,0,0.0,1
161793,217410,--,0.062,-0.017,-1.009,0.0,0,0.0,1
161802,217409,--,0.062,-0.017,-1.009,0.0,0,0.0,1
161800,217413,--,0.062,-0.017,-1.009,0.0,0,0.0,1
161806,217424,--,0.062,-0.017,-1.009,0.0,0,0.0,1
161808,217419,--,0.058,-0.016,-1.009,0.0,0,0.0,1
161810,217412,--,0.058,-0.016,-1.009,0.0,0,0.0,1
161811,217425,--,0.055,-0.016,-1.009,0.0,0,0.0,1
161819,217412,--,0.057,-0.015,-1.009,0.0,0,0.0,1
161823,217405,--,0.059,-0.016,-1.009,0.0,0,0.0,1
161807,217399,--,0.058,-0.015,-1.008,0.0,0,0.0,1
161821,217389,--,0.057,-0.014,-1.008,0.0,0,0.0,1
161810,217376,--,0.058,-0.015,-1.009,0.0,0,0.0,1
161822,217376,--,0.058,-0.015,-1.009,0.0,0,0.0,1
161818,217355,--,0.058,-0.015,-1.009,0.0,0,0.0,1
161805,217366,--,0.062,-0.015,-1.009,0.0,0,0.0,1
161817,217349,--,0.062,-0.015,-1.009,0.0,0,0.0,1
161820,217354,--,0.062,-0.015,-1.009,0.0,0,0.0,1
161829,217353,--,0.062,-0.015,-1.009,0.0,0,0.0,1
161819,217344,--,0.062,-0.015,-1.009,0.0,0,0.0,1
161819,217354,--,0.062,-0.015,-1.009,0.0,0,0.0,1
161825,217350,--,0.062,-0.015,-1.009,0.0,0,0.0,1
161829,217358,--,0.062,-0.015,-1.009,0.0,0,0.0,1
161831,217361,--,0.062,-0.015,-1.009,0.0,0,0.0,1
161843,217352,--,0.061,-0.015,-1.009,0.0,0,0.0,1
161847,217362,--,0.062,-0.015,-1.010,0.0,0,0.0,1
161840,217357,--,0.061,-0.015,-1.009,0.0,0,0.0,1
161843,217345,--,0.058,-0.016,-1.008,0.0,0,0.0,1
161861,217357,--,0.058,-0.016,-1.008,0.0,0,0.0,1
161869,217360,--,0.057,-0.016,-1.008,0.0,0,0.0,1
161872,217359,--,0.065,-0.016,-1.010,0.0,0,0.0,1
161874,217356,--,0.065,-0.016,-1.010,0.0,0,0.0,1
161874,217352,--,0.065,-0.016,-1.010,0.0,0,0.0,1
161862,217341,--,0.065,-0.016,-1.010,0.0,0,0.0,1
161846,217345,--,0.069,-0.017,-1.010,0.0,0,0.0,1
161826,217330,--,0.069,-0.017,-1.010,0.0,0,0.0,1
161785,217314,--,0.069,-0.017,-1.010,0.0,0,0.0,1
161743,217281,--,0.069,-0.017,-1.010,0.0,0,0.0,1
161696,217278,--,0.062,-0.017,-1.010,0.0,0,0.0,1
161655,217262,--,0.062,-0.017,-1.010,0.0,0,0.0,1
161619,217239,--,0.062,-0.017,-1.010,0.0,0,0.0,1
161591,217229,--,0.061,-0.017,-1.009,0.0,0,0.0,1
161579,217225,--,0.060,-0.017,-1.008,0.0,0,0.0,1
161569,217217,--,0.065,-0.016,-1.009,0.0,0,0.0,1
161568,217200,--,0.067,-0.016,-1.010,0.0,0,0.0,1
161565,217189,--,0.065,-0.016,-1.010,0.0,0,0.0,1
161565,217192,--,0.064,-0.018,-1.009,0.0,0,0.0,1
161572,217183,--,0.064,-0.018,-1.009,0.0,0,0.0,1
161585,217178,--,0.064,-0.018,-1.009,0.0,0,0.0,1
161579,217178,--,0.070,-0.018,-1.009,0.0,0,0.0,1
161587,217182,--,0.070,-0.018,-1.009,0.0,0,0.0,1
161589,217198,--,0.070,-0.018,-1.009,0.0,0,0.0,1
161600,217196,--,0.070,-0.018,-1.009,0.0,0,0.0,1
161591,217200,--,0.075,-0.018,-1.010,0.0,0,0.0,1
161586,217198,--,0.075,-0.018,-1.010,0.0,0,0.0,1
161597,217206,--,0.075,-0.018,-1.010,0.0,0,0.0,1
161585,217205,--,0.075,-0.018,-1.010,0.0,0,0.0,1
161592,217214,--,0.070,-0.018,-1.010,0.0,0,0.0,1
161593,217207,--,0.070,-0.016,-1.009,0.0,0,0.0,1
161601,217206,--,0.070,-0.016,-1.009,0.0,0,0.0,1
161611,217215,--,0.071,-0.017,-1.009,0.0,0,0.0,1
161624,217228,--,0.069,-0.018,-1.009,0.0,0,0.0,1
161632,217214,--,0.065,-0.018,-1.008,0.0,0,0.0,1
161632,217216,--,0.064,-0.018,-1.008,0.0,0,0.0,1
161628,217204,--,0.064,-0.018,-1.008,0.0,0,0.0,1
161625,217187,--,0.064,-0.018,-1.008,0.0,0,0.0,1
161635,217179,--,0.069,-0.017,-1.009,0.0,0,0.0,1
161626,217182,--,0.069,-0.017,-1.009,0.0,0,0.0,1
161612,217161,--,0.069,-0.017,-1.009,0.0,0,0.0,1
161608,217152,--,0.069,-0.017,-1.009,0.0,0,0.0,1
161614,217140,--,0.070,-0.017,-1.008,0.0,0,0.0,1
161597,217137,--,0.070,-0.017,-1.008,0.0,0,0.0,1
161608,217131,--,0.070,-0.017,-1.008,0.0,0,0.0,1
161599,217123,--,0.070,-0.017,-1.008,0.0,0,0.0,1
161597,217118,--,0.067,-0.017,-1.008,0.0,0,0.0,1
161605,217125,--,0.069,-0.017,-1.008,0.0,0,0.0,1
161606,217112,--,0.071,-0.017,-1.008,0.0,0,0.0,1
161607,217107,--,0.069,-0.016,-1.009,0.0,0,0.0,1
161617,217108,--,0.068,-0.016,-1.009,0.0,0,0.0,1
161614,217112,--,0.069,-0.017,-1.009,0.0,0,0.0,1
161623,217119,--,0.069,-0.017,-1.009,0.0,0,0.0,1
161624,217117,--,0.069,-0.017,-1.009,0.0,0,0.0,1
161634,217114,--,0.070,-0.018,-1.009,0.0,0,0.0,1
161640,217128,--,0.070,-0.018,-1.009,0.0,0,0.0,1
161643,217126,--,0.070,-0.018,-1.009,0.0,0,0.0,1
161636,217119,--,0.070,-0.018,-1.009,0.0,0,0.0,1
161639,217114,--,0.072,-0.017,-1.008,0.0,0,0.0,1
161647,217118,--,0.072,-0.017,-1.008,0.0,0,0.0,1
161649,217123,--,0.072,-0.017,-1.008,0.0,0,0.0,1
161657,217114,--,0.072,-0.017,-1.008,0.0,0,0.0,1
161656,217112,--,0.071,-0.017,-1.008,0.0,0,0.0,1
161660,217116,--,0.071,-0.017,-1.008,0.0,0,0.0,1
161667,217111,--,0.069,-0.017,-1.008,0.0,0,0.0,1
161661,217105,--,0.068,-0.017,-1.008,0.0,0,0.0,1
161662,217109,--,0.070,-0.017,-1.009,0.0,0,0.0,1
161665,217103,--,0.070,-0.017,-1.009,0.0,0,0.0,1
161666,217091,--,0.067,-0.017,-1.009,0.0,0,0.0,1
161668,217083,--,0.067,-0.017,-1.009,0.0,0,0.0,1
161662,217087,--,0.067,-0.017,-1.009,0.0,0,0.0,1
161659,217080,--,0.067,-0.017,-1.009,0.0,0,0.0,1
161662,217092,--,0.067,-0.017,-1.009,0.0,0,0.0,1
161659,217080,--,0.071,-0.017,-1.008,0.0,0,0.0,1
161665,217084,--,0.071,-0.017,-1.008,0.0,0,0.0,1
161672,217078,--,0.071,-0.017,-1.008,0.0,0,0.0,1
161676,217089,--,0.071,-0.017,-1.008,0.0,0,0.0,1
161670,217075,--,0.073,-0.017,-1.008,0.0,0,0.0,1
161679,217083,--,0.073,-0.017,-1.008,0.0,0,0.0,1
161684,217077,--,0.073,-0.017,-1.008,0.0,0,0.0,1
161694,217079,--,0.073,-0.017,-1.008,0.0,0,0.0,1
161698,217081,--,0.073,-0.017,-1.009,0.0,0,0.0,1
161697,217078,--,0.072,-0.017,-1.009,0.0,0,0.0,1
161695,217078,--,0.071,-0.017,-1.009,0.0,0,0.0,1
161706,217077,--,0.070,-0.017,-1.009,0.0,0,0.0,1
161703,217074,--,0.073,-0.017,-1.009,0.0,0,0.0,1
161698,217067,--,0.073,-0.017,-1.009,0.0,0,0.0,1
161702,217074,--,0.073,-0.017,-1.009,0.0,0,0.0,1
161688,217076,--,0.073,-0.017,-1.009,0.0,0,0.0,1
161672,217060,--,0.073,-0.017,-1.009,0.0,0,0.0,1
161625,217035,--,0.073,-0.017,-1.009,0.0,0,0.0,1
161588,217011,--,0.073,-0.017,-1.009,0.0,0,0.0,1
161546,216988,--,0.073,-0.017,-1.009,0.0,0,0.0,1
161487,216969,--,0.073,-0.017,-1.009,0.0,0,0.0,1
161458,216955,--,0.073,-0.017,-1.009,0.0,0,0.0,1
161433,216938,--,0.070,-0.017,-1.009,0.0,0,0.0,1
161419,216934,--,0.070,-0.017,-1.009,0.0,0,0.0,1
161424,216940,--,0.070,-0.017,-1.009,0.0,0,0.0,1
161413,216927,--,0.070,-0.017,-1.009,0.0,0,0.0,1
161414,216936,--,0.072,-0.017,-1.009,0.0,0,0.0,1
161428,216928,--,0.073,-0.017,-1.008,0.0,0,0.0,1
161432,216930,--,0.071,-0.017,-1.008,0.0,0,0.0,1
161434,216926,--,0.069,-0.016,-1.009,0.0,0,0.0,1
161440,216931,--,0.071,-0.017,-1.010,0.0,0,0.0,1
161450,216926,--,0.071,-0.017,-1.010,0.0,0,0.0,1
161450,216932,--,0.071,-0.017,-1.010,0.0,0,0.0,1
161434,216918,--,0.072,-0.018,-1.009,0.0,0,0.0,1
161436,216922,--,0.072,-0.018,-1.009,0.0,0,0.0,1
161436,216915,--,0.072,-0.018,-1.009,0.0,0,0.0,1
161426,216915,--,0.072,-0.018,-1.009,0.0,0,0.0,1
161437,216908,--,0.069,-0.019,-1.009,0.0,0,0.0,1
161428,216908,--,0.069,-0.019,-1.009,0.0,0,0.0,1
161442,216901,--,0.069,-0.019,-1.009,0.0,0,0.0,1
161449,216905,--,0.069,-0.019,-1.009,0.0,0,0.0,1
161465,216916,--,0.068,-0.019,-1.008,0.0,0,0.0,1
161471,216916,--,0.070,-0.018,-1.008,0.0,0,0.0,1
161469,216916,--,0.072,-0.018,-1.008,0.0,0,0.0,1
161488,216908,--,0.070,-0.017,-1.008,0.0,0,0.0,1
161479,216918,--,0.069,-0.017,-1.009,0.0,0,0.0,1
161475,216924,--,0.069,-0.017,-1.009,0.0,0,0.0,1
161467,216903,--,0.069,-0.017,-1.009,0.0,0,0.0,1
161481,216908,--,0.070,-0.018,-1.009,0.0,0,0.0,1
161464,216895,--,0.070,-0.018,-1.009,0.0,0,0.0,1
161468,216904,--,0.070,-0.018,-1.009,0.0,0,0.0,1
161481,216892,--,0.070,-0.018,-1.009,0.0,0,0.0,1
161464,216885,--,0.070,-0.018,-1.009,0.0,0,0.0,1
161483,216892,--,0.070,-0.018,-1.009,0.0,0,0.0,1
161471,216892,--,0.070,-0.018,-1.009,0.0,0,0.0,1
161470,216889,--,0.070,-0.018,-1.009,0.0,0,0.0,1
161468,216887,--,0.070,-0.017,-1.009,0.0,0,0.0,1
161479,216876,--,0.070,-0.017,-1.009,0.0,0,0.0,1
161479,216876,--,0.070,-0.017,-1.009,0.0,0,0.0,1
161480,216884,--,0.074,-0.017,-1.009,0.0,0,0.0,1
161488,216886,--,0.075,-0.016,-1.009,0.0,0,0.0,1
161483,216887,--,0.072,-0.017,-1.009,0.0,0,0.0,1
161499,216883,--,0.071,-0.017,-1.009,0.0,0,0.0,1
161497,216878,--,0.072,-0.017,-1.008,0.0,0,0.0,1
161504,216886,--,0.073,-0.017,-1.009,0.0,0,0.0,1
161507,216884,--,0.073,-0.017,-1.008,0.0,0,0.0,1
161516,216893,--,0.073,-0.017,-1.008,0.0,0,0.0,1
161515,216892,--,0.073,-0.017,-1.008,0.0,0,0.0,1
161529,216899,--,0.073,-0.017,-1.008,0.0,0,0.0,1
161526,216882,--,0.073,-0.017,-1.008,0.0,0,0.0,1
161516,216876,--,0.073,-0.017,-1.008,0.0,0,0.0,1
161525,216874,--,0.073,-0.017,-1.008,0.0,0,0.0,1
161525,216870,--,0.073,-0.017,-1.008,0.0,0,0.0,1
161538,216876,--,0.072,-0.017,-1.008,0.0,0,0.0,1
161530,216877,--,0.072,-0.017,-1.008,0.0,0,0.0,1
161543,216884,--,0.072,-0.017,-1.008,0.0,0,0.0,1
161537,216884,--,0.070,-0.017,-1.008,0.0,0,0.0,1
161544,216890,--,0.071,-0.017,-1.009,0.0,0,0.0,1
161548,216883,--,0.073,-0.017,-1.009,0.0,0,0.0,1
161547,216872,--,0.073,-0.017,-1.009,0.0,0,0.0,1
161554,216872,--,0.074,-0.018,-1.009,0.0,0,0.0,1
161556,216880,--,0.072,-0.018,-1.008,0.0,0,0.0,1
161557,216872,--,0.072,-0.018,-1.008,0.0,0,0.0,1
161557,216877,--,0.072,-0.018,-1.008,0.0,0,0.0,1
161558,216874,--,0.072,-0.018,-1.008,0.0,0,0.0,1
161566,216868,--,0.068,-0.017,-1.008,0.0,0,0.0,1
161574,216868,--,0.068,-0.017,-1.008,0.0,0,0.0,1
161554,216862,--,0.068,-0.017,-1.008,0.0,0,0.0,1
161563,216866,--,0.068,-0.017,-1.008,0.0,0,0.0,1
161574,216871,--,0.068,-0.017,-1.008,0.0,0,0.0,1
161573,216870,--,0.068,-0.017,-1.008,0.0,0,0.0,1
161573,216870,--,0.068,-0.017,-1.008,0.0,0,0.0,1
161582,216858,--,0.068,-0.017,-1.008,0.0,0,0.0,1
161591,216856,--,0.069,-0.018,-1.009,0.0,0,0.0,1
161588,216856,--,0.072,-0.018,-1.009,0.0,0,0.0,1
161589,216852,--,0.073,-0.018,-1.009,0.0,0,0.0,1
161582,216846,--,0.073,-0.018,-1.009,0.0,0,0.0,1
161601,216857,--,0.074,-0.018,-1.008,0.0,0,0.0,1
161596,216853,--,0.076,-0.018,-1.008,0.0,0,0.0,1
161596,216850,--,0.076,-0.018,-1.008,0.0,0,0.0,1
161585,216863,--,0.075,-0.019,-1.008,0.0,0,0.0,1
161567,216844,--,0.075,-0.019,-1.008,0.0,0,0.0,1
161525,216827,--,0.075,-0.019,-1.008,0.0,0,0.0,1
161478,216807,--,0.075,-0.019,-1.008,0.0,0,0.0,1
161427,216767,--,0.074,-0.019,-1.009,0.0,0,0.0,1
161384,216756,--,0.074,-0.019,-1.009,0.0,0,0.0,1
161352,216738,--,0.074,-0.019,-1.009,0.0,0,0.0,1
161335,216741,--,0.074,-0.019,-1.009,0.0,0,0.0,1
161331,216725,--,0.072,-0.018,-1.009,0.0,0,0.0,1
161321,216724,--,0.072,-0.018,-1.009,0.0,0,0.0,1
161318,216716,--,0.071,-0.018,-1.009,0.0,0,0.0,1
161331,216727,--,0.072,-0.017,-1.009,0.0,0,0.0,1
161338,216720,--,0.072,-0.017,-1.009,0.0,0,0.0,1
161345,216714,--,0.072,-0.017,-1.009,0.0,0,0.0,1
161358,216726,--,0.072,-0.017,-1.009,0.0,0,0.0,1
161360,216722,--,0.070,-0.018,-1.009,0.0,0,0.0,1
161377,216727,--,0.070,-0.018,-1.009,0.0,0,0.0,1
161364,216728,--,0.070,-0.018,-1.009,0.0,0,0.0,1
161361,216708,--,0.070,-0.018,-1.009,0.0,0,0.0,1
161363,216717,--,0.070,-0.018,-1.009,0.0,0,0.0,1
161360,216722,--,0.070,-0.018,-1.009,0.0,0,0.0,1
161358,216716,--,0.070,-0.018,-1.009,0.0,0,0.0,1
161362,216708,--,0.070,-0.018,-1.009,0.0,0,0.0,1
161354,216714,--,0.073,-0.018,-1.009,0.0,0,0.0,1
161360,216709,--,0.073,-0.018,-1.009,0.0,0,0.0,1
161375,216720,--,0.073,-0.018,-1.009,0.0,0,0.0,1
161380,216718,--,0.073,-0.018,-1.009,0.0,0,0.0,1
161397,216738,--,0.074,-0.018,-1.008,0.0,0,0.0,1
161407,216718,--,0.073,-0.018,-1.009,0.0,0,0.0,1
161411,216720,--,0.072,-0.018,-1.009,0.0,0,0.0,1
161405,216711,--,0.072,-0.018,-1.008,0.0,0,0.0,1
161411,216719,--,0.071,-0.019,-1.008,0.0,0,0.0,1
161413,216714,--,0.070,-0.020,-1.008,0.0,0,0.0,1
161407,216699,--,0.070,-0.019,-1.009,0.0,0,0.0,1
161407,216706,--,0.070,-0.019,-1.009,0.0,0,0.0,1
161403,216698,--,0.070,-0.019,-1.009,0.0,0,0.0,1
161389,216689,--,0.070,-0.019,-1.009,0.0,0,0.0,1
161403,216696,--,0.072,-0.017,-1.008,0.0,0,0.0,1
161387,216693,--,0.072,-0.017,-1.008,0.0,0,0.0,1
161392,216696,--,0.072,-0.017,-1.008,0.0,0,0.0,1
161393,216689,--,0.072,-0.017,-1.008,0.0,0,0.0,1
161410,216692,--,0.076,-0.017,-1.008,0.0,0,0.0,1
161412,216701,--,0.076,-0.017,-1.008,0.0,0,0.0,1
161420,216701,--,0.076,-0.017,-1.008,0.0,0,0.0,1
161421,216695,--,0.077,-0.017,-1.009,0.0,0,0.0,1
161421,216697,--,0.074,-0.018,-1.009,0.0,0,0.0,1
161428,216696,--,0.071,-0.018,-1.009,0.0,0,0.0,1
161440,216695,--,0.071,-0.018,-1.009,0.0,0,0.0,1
161443,216696,--,0.073,-0.018,-1.009,0.0,0,0.0,1
161445,216701,--,0.073,-0.018,-1.010,0.0,0,0.0,1
161453,216702,--,0.073,-0.018,-1.010,0.0,0,0.0,1
161452,216709,--,0.073,-0.018,-1.010,0.0,0,0.0,1
161464,216697,--,0.071,-0.019,-1.010,0.0,0,0.0,1
161466,216697,--,0.071,-0.019,-1.010,0.0,0,0.0,1
161466,216690,--,0.071,-0.019,-1.010,0.0,0,0.0,1
161478,216690,--,0.071,-0.019,-1.010,0.0,0,0.0,1
161466,216691,--,0.068,-0.018,-1.009,0.0,0,0.0,1
161466,216691,--,0.068,-0.018,-1.009,0.0,0,0.0,1
161469,216687,--,0.068,-0.018,-1.009,0.0,0,0.0,1
161485,216694,--,0.068,-0.018,-1.009,0.0,0,0.0,1
161477,216687,--,0.068,-0.018,-1.009,0.0,0,0.0,1
161481,216674,--,0.073,-0.018,-1.009,0.0,0,0.0,1
161475,216688,--,0.075,-0.018,-1.009,0.0,0,0.0,1
161485,216680,--,0.074,-0.018,-1.008,0.0,0,0.0,1
161482,216667,--,0.074,-0.018,-1.008,0.0,0,0.0,1
161475,216664,--,0.072,-0.018,-1.009,0.0,0,0.0,1
161487,216664,--,0.072,-0.018,-1.008,0.0,0,0.0,1
161488,216675,--,0.072,-0.018,-1.008,0.0,0,0.0,1
161491,216664,--,0.072,-0.018,-1.008,0.0,0,0.0,1
161499,216673,--,0.075,-0.019,-1.007,0.0,0,0.0,1
161498,216671,--,0.075,-0.019,-1.007,0.0,0,0.0,1
161502,216669,--,0.075,-0.019,-1.007,0.0,0,0.0,1
161501,216673,--,0.075,-0.019,-1.007,0.0,0,0.0,1
161510,216673,--,0.075,-0.018,-1.007,0.0,0,0.0,1
161499,216655,--,0.075,-0.018,-1.007,0.0,0,0.0,1
161511,216665,--,0.075,-0.018,-1.007,0.0,0,0.0,1
161512,216658,--,0.075,-0.018,-1.007,0.0,0,0.0,1
161513,216652,--,0.074,-0.018,-1.007,0.0,0,0.0,1
161522,216653,--,0.075,-0.018,-1.007,0.0,0,0.0,1
161527,216665,--,0.074,-0.019,-1.008,0.0,0,0.0,1
161518,216642,--,0.075,-0.019,-1.008,0.0,0,0.0,1
161525,216632,--,0.074,-0.018,-1.008,0.0,0,0.0,1
161524,216643,--,0.071,-0.018,-1.009,0.0,0,0.0,1
161526,216645,--,0.071,-0.018,-1.009,0.0,0,0.0,1
161529,216632,--,0.071,-0.018,-1.009,0.0,0,0.0,1
161517,216625,--,0.071,-0.019,-1.009,0.0,0,0.0,1
161513,216616,--,0.071,-0.019,-1.009,0.0,0,0.0,1
161493,216627,--,0.071,-0.019,-1.009,0.0,0,0.0,1
161468,216604,--,0.071,-0.019,-1.009,0.0,0,0.0,1
161416,216582,--,0.072,-0.019,-1.009,0.0,0,0.0,1
161368,216563,--,0.072,-0.019,-1.009,0.0,0,0.0,1
161318,216532,--,0.072,-0.019,-1.009,0.0,0,0.0,1
161278,216514,--,0.072,-0.019,-1.009,0.0,0,0.0,1
161248,216509,--,0.072,-0.019,-1.009,0.0,0,0.0,1
161233,216496,--,0.072,-0.019,-1.009,0.0,0,0.0,1
161228,216497,--,0.072,-0.018,-1.009,0.0,0,0.0,1
161227,216495,--,0.073,-0.018,-1.009,0.0,0,0.0,1
161225,216497,--,0.074,-0.018,-1.009,0.0,0,0.0,1
161249,216490,--,0.073,-0.017,-1.009,0.0,0,0.0,1
161261,216504,--,0.073,-0.017,-1.008,0.0,0,0.0,1
161271,216503,--,0.073,-0.018,-1.008,0.0,0,0.0,1
161271,216510,--,0.073,-0.018,-1.008,0.0,0,0.0,1
161286,216509,--,0.073,-0.018,-1.008,0.0,0,0.0,1
161288,216509,--,0.073,-0.018,-1.008,0.0,0,0.0,1
161269,216494,--,0.073,-0.018,-1.008,0.0,0,0.0,2
161282,216502,--,0.073,-0.018,-1.008,0.0,0,0.0,2
161281,216493,--,0.073,-0.018,-1.008,0.0,0,0.0,2
161269,216490,--,0.073,-0.018,-1.008,0.0,0,0.0,2
161263,216481,--,0.072,-0.018,-1.009,0.0,0,0.0,2
161274,216468,--,0.072,-0.018,-1.009,0.0,0,0.0,2
161283,216476,--,0.072,-0.018,-1.009,0.0,0,0.0,2
161292,216467,--,0.072,-0.018,-1.009,0.0,0,0.0,2
161299,216475,--,0.071,-0.019,-1.009,0.0,0,0.0,2
161311,216479,--,0.072,-0.018,-1.008,0.0,0,0.0,2
161304,216472,--,0.073,-0.018,-1.008,0.0,0,0.0,2
161316,216491,--,0.074,-0.018,-1.008,0.0,0,0.0,2
161309,216468,--,0.074,-0.017,-1.008,0.0,0,0.0,2
161309,216469,--,0.073,-0.018,-1.008,0.0,0,0.0,2
161325,216478,--,0.072,-0.018,-1.009,0.0,0,0.0,2
161306,216465,--,0.072,-0.018,-1.009,0.0,0,0.0,2
161304,216450,--,0.072,-0.018,-1.009,0.0,0,0.0,2
161308,216468,--,0.072,-0.018,-1.009,0.0,0,0.0,2
161306,216451,--,0.072,-0.018,-1.009,0.0,0,0.0,2
161305,216452,--,0.075,-0.018,-1.008,0.0,0,0.0,2
161306,216457,--,0.075,-0.018,-1.008,0.0,0,0.0,2
161313,216447,--,0.075,-0.018,-1.008,0.0,0,0.0,2
161322,216470,--,0.075,-0.018,-1.008,0.0,0,0.0,2
161316,216453,--,0.076,-0.018,-1.008,0.0,0,0.0,2
161326,216445,--,0.076,-0.018,-1.008,0.0,0,0.0,2
161333,216455,--,0.075,-0.018,-1.008,0.0,0,0.0,2
161341,216469,--,0.073,-0.018,-1.008,0.0,0,0.0,2
161339,216457,--,0.074,-0.017,-1.009,0.0,0,0.0,2
161350,216454,--,0.075,-0.017,-1.009,0.0,0,0.0,2
161354,216458,--,0.073,-0.018,-1.008,0.0,0,0.0,2
161361,216447,--,0.074,-0.019,-1.008,0.0,0,0.0,2
161353,216453,--,0.074,-0.019,-1.008,0.0,0,0.0,2
161368,216447,--,0.074,-0.019,-1.008,0.0,0,0.0,2
161372,216440,--,0.074,-0.018,-1.009,0.0,0,0.0,2
161376,216449,--,0.074,-0.018,-1.009,0.0,0,0.0,2
161375,216429,--,0.074,-0.018,-1.009,0.0,0,0.0,2
161362,216440,--,0.074,-0.018,-1.009,0.0,0,0.0,2
161372,216407,--,0.074,-0.018,-1.009,0.0,0,0.0,2
161384,216416,--,0.075,-0.018,-1.009,0.0,0,0.0,2
161369,216404,--,0.075,-0.018,-1.009,0.0,0,0.0,2
161382,216410,--,0.075,-0.018,-1.009,0.0,0,0.0,2
161379,216399,--,0.075,-0.018,-1.009,0.0,0,0.0,2
161382,216405,--,0.076,-0.018,-1.009,0.0,0,0.0,2
161381,216402,--,0.076,-0.018,-1.009,0.0,0,0.0,2
161402,216404,--,0.076,-0.018,-1.009,0.0,0,0.0,2
161391,216402,--,0.075,-0.018,-1.008,0.0,0,0.0,2
161381,216398,--,0.076,-0.018,-1.009,0.0,0,0.0,2
161392,216408,--,0.075,-0.018,-1.009,0.0,0,0.0,2
161391,216391,--,0.074,-0.018,-1.008,0.0,0,0.0,2
161390,216413,--,0.074,-0.018,-1.008,0.0,0,0.0,2
161399,216401,--,0.074,-0.018,-1.008,0.0,0,0.0,2
161406,216407,--,0.074,-0.018,-1.008,0.0,0,0.0,2
161404,216409,--,0.074,-0.018,-1.008,0.0,0,0.0,2
161407,216404,--,0.074,-0.018,-1.008,0.0,0,0.0,2
161412,216414,--,0.074,-0.018,-1.008,0.0,0,0.0,2
161411,216405,--,0.074,-0.018,-1.008,0.0,0,0.0,2
161412,216407,--,0.076,-0.018,-1.008,0.0,0,0.0,2
161418,216399,--,0.076,-0.018,-1.008,0.0,0,0.0,2
161430,216404,--,0.076,-0.018,-1.008,0.0,0,0.0,2
161432,216409,--,0.076,-0.018,-1.008,0.0,0,0.0,2
161431,216418,--,0.073,-0.017,-1.008,0.0,0,0.0,2
161442,216407,--,0.075,-0.018,-1.009,0.0,0,0.0,2
161443,216409,--,0.074,-0.019,-1.009,0.0,0,0.0,2
161449,216401,--,0.074,-0.020,-1.008,0.0,0,0.0,2
161455,216419,--,0.074,-0.020,-1.007,0.0,0,0.0,2
161451,216396,--,0.073,-0.020,-1.008,0.0,0,0.0,2
161461,216403,--,0.073,-0.020,-1.008,0.0,0,0.0,2
161466,216398,--,0.073,-0.020,-1.008,0.0,0,0.0,2
161456,216398,--,0.073,-0.020,-1.008,0.0,0,0.0,2
161459,216404,--,0.073,-0.020,-1.008,0.0,0,0.0,2
161451,216399,--,0.074,-0.019,-1.009,0.0,0,0.0,2
161422,216388,--,0.074,-0.019,-1.009,0.0,0,0.0,2
161377,216364,--,0.074,-0.019,-1.009,0.0,0,0.0,2
161330,216352,--,0.074,-0.019,-1.009,0.0,0,0.0,2
161282,216327,--,0.076,-0.019,-1.010,0.0,0,0.0,2
161231,216305,--,0.076,-0.019,-1.010,0.0,0,0.0,2
161194,216280,--,0.076,-0.019,-1.010,0.0,0,0.0,2
161164,216279,--,0.076,-0.019,-1.009,0.0,0,0.0,2
161146,216260,--,0.077,-0.020,-1.009,0.0,0,0.0,2
161145,216250,--,0.075,-0.020,-1.009,0.0,0,0.0,2
161143,216248,--,0.074,-0.019,-1.008,0.0,0,0.0,2
161154,216267,--,0.075,-0.019,-1.008,0.0,0,0.0,2
161164,216275,--,0.075,-0.019,-1.008,0.0,0,0.0,2
161169,216246,--,0.075,-0.019,-1.008,0.0,0,0.0,2
161177,216262,--,0.075,-0.019,-1.008,0.0,0,0.0,2
161185,216279,--,0.075,-0.020,-1.009,0.0,0,0.0,2
161186,216274,--,0.075,-0.020,-1.009,0.0,0,0.0,2
161192,216275,--,0.075,-0.020,-1.009,0.0,0,0.0,2
161198,216259,--,0.075,-0.020,-1.009,0.0,0,0.0,2
161185,216258,--,0.075,-0.019,-1.009,0.0,0,0.0,2
161181,216260,--,0.075,-0.019,-1.009,0.0,0,0.0,2
161181,216256,--,0.075,-0.019,-1.009,0.0,0,0.0,2
161179,216247,--,0.075,-0.019,-1.009,0.0,0,0.0,2
161180,216263,--,0.077,-0.019,-1.009,0.0,0,0.0,2
161193,216268,--,0.079,-0.020,-1.009,0.0,0,0.0,2
161200,216272,--,0.078,-0.020,-1.009,0.0,0,0.0,2
161212,216273,--,0.077,-0.019,-1.009,0.0,0,0.0,2
161216,216270,--,0.078,-0.020,-1.009,0.0,0,0.0,2
161225,216279,--,0.078,-0.020,-1.009,0.0,0,0.0,2
161237,216283,--,0.078,-0.020,-1.009,0.0,0,0.0,2
161237,216274,--,0.078,-0.020,-1.009,0.0,0,0.0,2
161236,216265,--,0.078,-0.020,-1.009,0.0,0,0.0,2
161238,216267,--,0.078,-0.020,-1.009,0.0,0,0.0,2
161238,216268,--,0.078,-0.020,-1.009,0.0,0,0.0,2
161240,216269,--,0.079,-0.020,-1.008,0.0,0,0.0,2
161231,216265,--,0.079,-0.020,-1.008,0.0,0,0.0,2
161239,216267,--,0.079,-0.020,-1.008,0.0,0,0.0,2
161229,216256,--,0.079,-0.020,-1.008,0.0,0,0.0,2
161228,216258,--,0.081,-0.021,-1.009,0.0,0,0.0,2
161237,216261,--,0.081,-0.021,-1.009,0.0,0,0.0,2
161243,216260,--,0.081,-0.021,-1.009,0.0,0,0.0,2
161229,216264,--,0.080,-0.020,-1.008,0.0,0,0.0,2
161236,216262,--,0.080,-0.020,-1.008,0.0,0,0.0,2
161243,216259,--,0.080,-0.020,-1.008,0.0,0,0.0,2
161254,216256,--,0.081,-0.020,-1.008,0.0,0,0.0,2
161254,216264,--,0.080,-0.020,-1.008,0.0,0,0.0,2
161269,216265,--,0.080,-0.020,-1.008,0.0,0,0.0,2
161263,216267,--,0.080,-0.020,-1.008,0.0,0,0.0,2
161283,216270,--,0.080,-0.020,-1.008,0.0,0,0.0,2
161270,216267,--,0.079,-0.020,-1.008,0.0,0,0.0,2
161288,216267,--,0.079,-0.020,-1.008,0.0,0,0.0,2
161291,216255,--,0.079,-0.020,-1.008,0.0,0,0.0,2
161289,216263,--,0.079,-0.020,-1.008,0.0,0,0.0,2
161292,216272,--,0.078,-0.019,-1.008,0.0,0,0.0,2
161298,216260,--,0.078,-0.019,-1.008,0.0,0,0.0,2
161306,216270,--,0.078,-0.019,-1.008,0.0,0,0.0,2
161301,216254,--,0.078,-0.019,-1.008,0.0,0,0.0,2
161309,216259,--,0.078,-0.019,-1.008,0.0,0,0.0,2
161316,216260,--,0.080,-0.020,-1.008,0.0,0,0.0,2
161314,216259,--,0.081,-0.020,-1.008,0.0,0,0.0,2
161325,216263,--,0.081,-0.020,-1.008,0.0,0,0.0,2
161321,216258,--,0.079,-0.020,-1.009,0.0,0,0.0,2
161327,216264,--,0.078,-0.020,-1.009,0.0,0,0.0,2
161327,216258,--,0.078,-0.020,-1.009,0.0,0,0.0,2
161334,216266,--,0.079,-0.020,-1.009,0.0,0,0.0,2
161332,216253,--,0.079,-0.020,-1.009,0.0,0,0.0,2
161332,216241,--,0.079,-0.020,-1.009,0.0,0,0.0,2
161337,216258,--,0.079,-0.020,-1.009,0.0,0,0.0,2
161346,216253,--,0.081,-0.020,-1.009,0.0,0,0.0,2
161339,216252,--,0.081,-0.020,-1.009,0.0,0,0.0,2
161348,216243,--,0.081,-0.020,-1.009,0.0,0,0.0,2
161349,216246,--,0.081,-0.020,-1.009,0.0,0,0.0,2
161351,216240,--,0.083,-0.020,-1.010,0.0,0,0.0,2
161354,216245,--,0.083,-0.020,-1.010,0.0,0,0.0,2
161360,216246,--,0.083,-0.020,-1.010,0.0,0,0.0,2
161358,216249,--,0.082,-0.020,-1.009,0.0,0,0.0,2
161366,216252,--,0.081,-0.020,-1.008,0.0,0,0.0,2
161365,216252,--,0.081,-0.020,-1.008,0.0,0,0.0,2
161372,216249,--,0.080,-0.021,-1.009,0.0,0,0.0,2
161380,216261,--,0.081,-0.021,-1.008,0.0,0,0.0,2
161383,216253,--,0.081,-0.021,-1.008,0.0,0,0.0,2
161386,216259,--,0.081,-0.021,-1.008,0.0,0,0.0,2
161387,216253,--,0.082,-0.022,-1.008,0.0,0,0.0,2
161392,216244,--,0.082,-0.022,-1.008,0.0,0,0.0,2
161397,216251,--,0.082,-0.022,-1.008,0.0,0,0.0,2
161416,216248,--,0.082,-0.022,-1.008,0.0,0,0.0,2
161419,216256,--,0.082,-0.022,-1.008,0.0,0,0.0,2
161413,216264,--,0.081,-0.022,-1.008,0.0,0,0.0,2
161399,216242,--,0.081,-0.022,-1.008,0.0,0,0.0,2
161403,216244,--,0.081,-0.022,-1.008,0.0,0,0.0,2
161397,216238,--,0.081,-0.022,-1.008,0.0,0,0.0,2
161359,216217,--,0.081,-0.021,-1.009,0.0,0,0.0,2
161313,216195,--,0.082,-0.020,-1.009,0.0,0,0.0,2
161269,216188,--,0.082,-0.020,-1.009,0.0,0,0.0,2
161220,216171,--,0.080,-0.020,-1.009,0.0,0,0.0,2
161174,216145,--,0.079,-0.021,-1.008,0.0,0,0.0,2
161142,216127,--,0.078,-0.021,-1.009,0.0,0,0.0,2
161124,216109,--,0.078,-0.021,-1.009,0.0,0,0.0,2
161116,216110,--,0.078,-0.021,-1.009,0.0,0,0.0,2
161114,216104,--,0.078,-0.021,-1.009,0.0,0,0.0,2
161120,216117,--,0.078,-0.021,-1.009,0.0,0,0.0,2
161118,216121,--,0.078,-0.021,-1.009,0.0,0,0.0,2
161138,216117,--,0.078,-0.021,-1.009,0.0,0,0.0,2
161140,216121,--,0.078,-0.021,-1.009,0.0,0,0.0,2
161147,216119,--,0.078,-0.021,-1.009,0.0,0,0.0,2
161149,216122,--,0.080,-0.021,-1.008,0.0,0,0.0,2
161155,216114,--,0.080,-0.021,-1.008,0.0,0,0.0,2
161151,216110,--,0.080,-0.021,-1.008,0.0,0,0.0,2
161145,216114,--,0.082,-0.021,-1.008,0.0,0,0.0,2
161147,216109,--,0.085,-0.021,-1.009,0.0,0,0.0,2
161144,216117,--,0.082,-0.021,-1.008,0.0,0,0.0,2
161141,216108,--,0.080,-0.022,-1.008,0.0,0,0.0,2
161139,216105,--,0.080,-0.021,-1.008,0.0,0,0.0,2
161146,216110,--,0.079,-0.021,-1.008,0.0,0,0.0,3
161150,216106,--,0.079,-0.021,-1.008,71.5,96,0.0,3
161153,216113,--,0.081,-0.021,-1.008,71.5,96,0.0,3
161170,216112,--,0.081,-0.021,-1.008,71.5,96,0.0,3
161172,216111,--,0.081,-0.021,-1.008,71.5,96,0.0,3
161182,216104,--,0.081,-0.021,-1.008,71.5,96,0.0,3
161185,216122,--,0.081,-0.021,-1.008,71.5,96,0.0,3
161193,216118,--,0.082,-0.021,-1.007,71.5,96,0.0,3
161182,216113,--,0.082,-0.021,-1.007,71.5,96,0.0,3
161185,216112,--,0.082,-0.021,-1.007,71.5,96,0.0,3
161184,216111,--,0.081,-0.020,-1.007,71.5,96,0.0,3
161186,216112,--,0.081,-0.020,-1.007,71.5,96,0.0,3
161187,216097,--,0.081,-0.020,-1.008,71.5,96,0.0,3
161184,216116,--,0.081,-0.020,-1.008,71.5,96,0.0,3
161178,216086,--,0.079,-0.021,-1.009,71.5,96,0.0,3
161193,216091,--,0.077,-0.021,-1.009,71.5,96,0.0,3
161175,216083,--,0.077,-0.021,-1.008,71.5,96,0.0,3
161187,216075,--,0.079,-0.021,-1.008,71.5,96,0.0,3
161188,216077,--,0.079,-0.021,-1.008,71.5,96,0.0,3
161179,216081,--,0.079,-0.021,-1.008,71.5,96,0.0,3
161195,216080,--,0.079,-0.021,-1.008,71.5,96,0.0,3
161197,216084,--,0.082,-0.022,-1.009,71.5,96,0.0,3
161193,216094,--,0.082,-0.022,-1.009,71.5,96,0.0,3
161203,216086,--,0.082,-0.022,-1.009,71.5,96,0.0,3
161209,216089,--,0.082,-0.022,-1.009,71.5,96,0.0,3
161223,216099,--,0.081,-0.022,-1.009,71.5,96,0.0,3
161222,216074,--,0.081,-0.022,-1.009,71.5,96,0.0,3
161223,216079,--,0.081,-0.022,-1.009,71.5,96,0.0,3
161228,216089,--,0.081,-0.022,-1.009,71.5,96,0.0,3
161235,216078,--,0.079,-0.021,-1.008,71.5,96,0.0,3
161234,216084,--,0.080,-0.022,-1.008,71.5,96,0.0,3
161237,216093,--,0.080,-0.021,-1.008,71.5,96,0.0,3
161247,216080,--,0.080,-0.021,-1.008,71.5,96,0.0,3
161261,216093,--,0.079,-0.020,-1.009,71.5,96,0.0,3
161258,216080,--,0.079,-0.021,-1.008,71.5,96,0.0,3
161245,216087,--,0.079,-0.021,-1.008,71.5,96,0.0,3
161255,216080,--,0.081,-0.022,-1.008,71.5,96,0.0,3
161258,216088,--,0.081,-0.022,-1.008,71.5,96,0.0,3
161266,216086,--,0.081,-0.022,-1.008,71.5,96,0.0,3
161257,216088,--,0.081,-0.022,-1.008,71.5,96,0.0,3
161262,216083,--,0.080,-0.022,-1.008,71.5,96,0.0,3
161264,216085,--,0.080,-0.022,-1.008,71.5,96,0.0,3
161267,216076,--,0.080,-0.022,-1.008,71.5,96,0.0,3
161271,216075,--,0.080,-0.022,-1.008,71.5,96,0.0,3
161274,216072,--,0.079,-0.022,-1.008,71.5,96,0.0,3
161279,216071,--,0.079,-0.022,-1.008,71.5,96,0.0,3
161266,216064,--,0.079,-0.021,-1.008,71.5,96,0.0,3
161274,216074,--,0.078,-0.021,-1.008,71.5,96,0.0,3
161278,216083,--,0.077,-0.021,-1.008,71.5,96,0.0,3
161283,216069,--,0.076,-0.020,-1.009,71.5,96,0.0,3
161277,216077,--,0.077,-0.020,-1.009,71.5,96,0.0,3
161280,216067,--,0.077,-0.021,-1.008,71.5,96,0.0,3
161273,216055,--,0.077,-0.021,-1.008,71.5,96,0.0,3
161279,216061,--,0.077,-0.021,-1.008,71.5,96,0.0,3
161282,216062,--,0.077,-0.021,-1.008,71.5,96,0.0,3
161287,216068,--,0.076,-0.021,-1.008,71.5,96,0.0,3
161285,216075,--,0.076,-0.021,-1.008,71.5,96,0.0,3
161278,216063,--,0.076,-0.021,-1.008,71.5,96,0.0,3
161288,216066,--,0.076,-0.021,-1.008,71.5,96,0.0,3
161293,216059,--,0.074,-0.021,-1.009,71.5,96,0.0,3
161300,216062,--,0.074,-0.021,-1.009,71.5,96,0.0,3
161291,216065,--,0.074,-0.021,-1.009,71.5,96,0.0,3
161302,216068,--,0.074,-0.021,-1.009,71.5,96,0.0,3
161310,216078,--,0.075,-0.020,-1.008,71.5,96,0.0,3
161309,216076,--,0.078,-0.021,-1.008,71.5,96,0.0,3
161309,216067,--,0.078,-0.021,-1.009,71.5,96,0.0,3
161316,216065,--,0.076,-0.020,-1.009,71.5,96,0.0,3
161310,216069,--,0.077,-0.020,-1.008,71.5,96,0.0,3
161308,216061,--,0.078,-0.020,-1.008,71.5,96,0.0,3
161285,216041,--,0.078,-0.020,-1.008,71.5,96,0.0,3
161287,216047,--,0.079,-0.020,-1.008,71.5,96,0.0,3
161243,216040,--,0.079,-0.020,-1.008,71.5,96,0.0,3
161199,216004,--,0.079,-0.020,-1.008,71.5,96,0.0,3
161142,215982,--,0.079,-0.020,-1.008,71.5,96,0.0,3
161104,215963,--,0.075,-0.020,-1.008,71.5,96,0.0,3
161050,215932,--,0.075,-0.020,-1.008,71.5,96,0.0,3
161040,215939,--,0.075,-0.020,-1.008,71.5,96,0.0,3
161019,215923,--,0.075,-0.020,-1.008,71.5,96,0.0,3
161023,215921,--,0.072,-0.020,-1.009,71.5,96,0.0,3
161017,215908,--,0.072,-0.020,-1.009,71.5,96,0.0,3
161018,215907,--,0.073,-0.020,-1.009,71.5,96,0.0,3
161038,215901,--,0.076,-0.019,-1.009,71.5,96,0.0,3
161042,215913,--,0.075,-0.020,-1.009,71.5,96,0.0,3
161042,215911,--,0.074,-0.020,-1.009,71.5,96,0.0,3
161062,215916,--,0.074,-0.020,-1.009,71.5,96,0.0,3
161066,215916,--,0.073,-0.020,-1.009,71.5,96,0.0,3
161068,215917,--,0.073,-0.020,-1.009,71.5,96,0.0,3
161067,215901,--,0.073,-0.020,-1.009,71.5,96,0.0,3
161058,215925,--,0.075,-0.021,-1.009,71.5,96,0.0,3
161059,215925,--,0.075,-0.021,-1.009,71.5,96,0.0,3
161068,215909,--,0.075,-0.021,-1.009,71.5,96,0.0,3
161054,215906,--,0.075,-0.021,-1.009,71.5,96,0.0,3
161054,215904,--,0.079,-0.021,-1.009,71.5,96,0.0,3
161061,215903,--,0.079,-0.021,-1.009,0.0,0,0.0,3
161069,215894,--,0.079,-0.021,-1.009,71.5,96,0.0,3
161083,215898,--,0.079,-0.021,-1.009,71.5,96,0.0,3
161082,215912,--,0.079,-0.021,-1.009,71.5,96,0.0,3
161088,215920,--,0.079,-0.020,-1.009,71.5,96,0.0,3
161093,215918,--,0.076,-0.020,-1.009,71.5,96,0.0,3
161079,215918,--,0.075,-0.020,-1.009,71.5,96,0.0,3
161092,215925,--,0.076,-0.020,-1.009,71.5,96,0.0,3
161095,215923,--,0.077,-0.021,-1.008,71.5,96,0.0,3
161095,215907,--,0.079,-0.021,-1.008,71.5,96,0.0,3
161092,215899,--,0.079,-0.021,-1.008,71.5,96,0.0,3
161096,215901,--,0.079,-0.021,-1.008,71.5,96,0.0,3
161092,215902,--,0.080,-0.021,-1.008,71.5,96,0.0,3
161091,215902,--,0.080,-0.021,-1.008,71.5,96,0.0,3
161092,215894,--,0.080,-0.021,-1.008,71.5,96,0.0,3
161100,215892,--,0.080,-0.021,-1.008,71.5,96,0.0,3
161103,215901,--,0.078,-0.022,-1.009,71.5,96,0.0,3
161098,215898,--,0.078,-0.022,-1.009,71.5,96,0.0,3
161100,215897,--,0.078,-0.022,-1.009,71.5,96,0.0,3
161095,215891,--,0.077,-0.021,-1.009,71.5,96,0.0,3
161114,215904,--,0.077,-0.021,-1.009,71.5,96,0.0,3
161117,215901,--,0.077,-0.021,-1.009,71.5,96,0.0,3
161117,215900,--,0.076,-0.020,-1.009,71.5,96,0.0,3
161124,215902,--,0.077,-0.020,-1.009,71.5,96,0.0,3
161126,215901,--,0.078,-0.021,-1.009,71.5,96,0.0,3
161129,215895,--,0.078,-0.022,-1.009,71.5,96,0.0,3
161138,215899,--,0.078,-0.022,-1.009,71.5,96,0.0,3
161148,215909,--,0.078,-0.022,-1.009,71.5,96,0.0,3
161147,215906,--,0.076,-0.021,-1.009,71.5,96,0.0,3
161152,215906,--,0.076,-0.021,-1.009,71.5,96,0.0,3
161163,215899,--,0.076,-0.021,-1.009,71.5,96,0.0,3
161159,215897,--,0.075,-0.020,-1.009,71.5,96,0.0,3
161157,215888,--,0.075,-0.020,-1.009,71.5,96,0.0,3
161155,215906,--,0.075,-0.020,-1.009,71.5,96,0.0,3
161158,215897,--,0.076,-0.020,-1.008,71.5,96,0.0,3
161162,215901,--,0.076,-0.020,-1.008,71.5,96,0.0,3
161166,215900,--,0.076,-0.020,-1.008,71.5,96,0.0,3
161178,215905,--,0.078,-0.020,-1.008,71.5,96,0.0,3
161177,215905,--,0.078,-0.021,-1.008,71.5,96,0.0,3
161178,215889,--,0.075,-0.021,-1.008,71.5,96,0.0,3
161182,215890,--,0.074,-0.020,-1.008,71.5,96,0.0,3
161188,215896,--,0.075,-0.020,-1.008,71.5,96,0.0,3
161197,215890,--,0.075,-0.020,-1.008,71.5,96,0.0,3
161194,215907,--,0.076,-0.020,-1.008,71.5,96,0.0,3
161199,215911,--,0.076,-0.020,-1.008,71.5,96,0.0,3
161195,215898,--,0.076,-0.020,-1.008,71.5,96,0.0,3
161194,215897,--,0.077,-0.021,-1.009,71.5,96,0.0,3
161195,215887,--,0.077,-0.021,-1.009,71.5,96,0.0,3
161206,215892,--,0.077,-0.021,-1.009,71.5,96,0.0,3
161201,215893,--,0.076,-0.020,-1.009,71.5,96,0.0,3
161201,215886,--,0.076,-0.020,-1.009,71.5,96,0.0,3
161215,215912,--,0.076,-0.020,-1.009,71.5,96,0.0,3
161211,215897,--,0.077,-0.021,-1.008,71.5,96,0.0,3
161225,215895,--,0.077,-0.021,-1.008,71.5,96,0.0,3
161216,215898,--,0.077,-0.021,-1.008,71.5,96,0.0,3
161231,215898,--,0.078,-0.021,-1.008,71.5,96,0.0,3
161241,215901,--,0.077,-0.021,-1.008,71.5,96,0.0,3
161240,215891,--,0.076,-0.020,-1.008,71.5,96,0.0,3
161243,215884,--,0.076,-0.020,-1.008,71.5,96,0.0,3
161231,215893,--,0.076,-0.021,-1.007,71.5,96,0.0,3
161242,215907,--,0.076,-0.021,-1.007,71.5,96,0.0,3
161242,215903,--,0.076,-0.020,-1.007,71.5,96,0.0,3
161252,215898,--,0.076,-0.020,-1.007,71.5,96,0.0,3
161239,215896,--,0.076,-0.020,-1.007,71.5,96,0.0,3
161224,215883,--,0.077,-0.020,-1.008,71.5,96,0.0,3
161194,215870,--,0.077,-0.020,-1.008,71.5,96,0.0,3
161150,215851,--,0.077,-0.020,-1.008,71.5,96,0.0,3
161109,215818,--,0.077,-0.020,-1.008,71.5,96,0.0,3
161058,215803,--,0.077,-0.021,-1.008,71.5,96,0.0,3
161014,215786,--,0.077,-0.021,-1.008,71.5,96,0.0,3
160999,215769,--,0.077,-0.021,-1.008,71.5,96,0.0,3
160975,215770,--,0.078,-0.021,-1.009,71.5,96,0.0,3
160972,215759,--,0.077,-0.021,-1.010,71.5,96,0.0,3
160975,215757,--,0.073,-0.021,-1.009,71.5,96,0.0,3
160997,215757,--,0.073,-0.021,-1.008,71.5,96,0.0,3
160990,215756,--,0.076,-0.022,-1.008,71.5,96,0.0,3
160993,215770,--,0.077,-0.022,-1.008,71.5,96,0.0,3
161008,215766,--,0.077,-0.022,-1.008,71.5,96,0.0,3
161011,215766,--,0.077,-0.022,-1.008,71.5,96,0.0,3
161023,215774,--,0.077,-0.021,-1.008,71.5,96,0.0,3
161022,215763,--,0.077,-0.021,-1.008,71.5,96,0.0,3
161012,215758,--,0.077,-0.021,-1.008,71.5,96,0.0,3
161018,215757,--,0.077,-0.021,-1.008,71.5,96,0.0,3
161003,215757,--,0.076,-0.021,-1.009,71.5,96,0.0,3
161015,215754,--,0.076,-0.021,-1.009,71.4,95,0.0,3
161011,215758,--,0.074,-0.021,-1.008,71.4,95,0.0,3
161009,215749,--,0.074,-0.021,-1.008,71.4,95,0.0,3
161015,215758,--,0.074,-0.021,-1.008,71.4,95,0.0,3
161026,215750,--,0.074,-0.021,-1.008,71.4,95,0.0,3
161029,215746,--,0.076,-0.021,-1.008,71.4,95,0.0,3
161037,215758,--,0.078,-0.022,-1.008,71.4,95,0.0,3
161044,215764,--,0.077,-0.022,-1.008,71.4,95,0.0,3
161050,215766,--,0.076,-0.022,-1.008,71.4,95,0.0,3
161051,215753,--,0.076,-0.022,-1.008,71.4,95,0.0,3
161046,215757,--,0.075,-0.022,-1.008,71.4,95,0.0,3
161060,215748,--,0.075,-0.022,-1.008,71.4,95,0.0,3
161049,215746,--,0.075,-0.022,-1.008,71.4,95,0.0,3
161048,215750,--,0.075,-0.022,-1.008,71.4,95,0.0,3
161045,215752,--,0.076,-0.022,-1.007,71.4,95,0.0,3
161054,215760,--,0.076,-0.022,-1.007,71.4,95,0.0,3
161046,215752,--,0.076,-0.022,-1.007,71.4,95,0.0,3
161044,215747,--,0.077,-0.021,-1.008,71.4,95,0.0,3
161070,215760,--,0.077,-0.021,-1.008,71.4,95,0.0,3
161053,215757,--,0.077,-0.021,-1.008,71.4,95,0.0,3
161058,215749,--,0.077,-0.021,-1.008,71.4,95,0.0,3
161064,215757,--,0.077,-0.021,-1.008,71.4,95,0.0,3
161063,215758,--,0.075,-0.021,-1.008,71.4,95,0.0,3
161065,215756,--,0.075,-0.021,-1.008,71.4,95,0.0,3
161072,215757,--,0.075,-0.021,-1.008,71.4,95,0.0,3
161075,215747,--,0.076,-0.021,-1.008,71.4,95,0.0,3
161079,215756,--,0.075,-0.021,-1.009,71.4,95,0.0,3
161090,215753,--,0.075,-0.021,-1.009,71.4,95,0.0,3
161095,215765,--,0.075,-0.021,-1.009,71.4,95,0.0,3
161090,215755,--,0.072,-0.021,-1.008,71.4,95,0.0,3
161083,215751,--,0.072,-0.021,-1.008,71.4,95,0.0,3
161101,215749,--,0.072,-0.021,-1.008,71.4,95,0.0,3
161102,215741,--,0.072,-0.021,-1.008,71.4,95,0.0,3
161106,215737,--,0.072,-0.021,-1.008,71.4,95,0.0,3
161114,215749,--,0.072,-0.021,-1.008,71.4,95,0.0,3
161109,215755,--,0.072,-0.021,-1.008,71.4,95,0.0,3
161109,215741,--,0.076,-0.022,-1.008,71.4,95,0.0,3
161119,215743,--,0.076,-0.022,-1.008,71.4,95,0.0,3
161123,215747,--,0.076,-0.022,-1.008,71.4,95,0.0,3
161126,215753,--,0.078,-0.022,-1.008,71.4,95,0.0,3
161122,215743,--,0.076,-0.022,-1.008,71.4,95,0.0,3
161131,215757,--,0.074,-0.022,-1.008,71.4,95,0.0,3
161138,215762,--,0.075,-0.022,-1.009,71.4,95,0.0,3
161134,215747,--,0.077,-0.022,-1.009,71.4,95,0.0,3
161122,215765,--,0.076,-0.022,-1.009,71.4,95,0.0,3
161131,215755,--,0.076,-0.022,-1.009,71.4,95,0.0,3
161140,215750,--,0.076,-0.022,-1.009,71.4,95,0.0,3
161138,215756,--,0.074,-0.021,-1.009,71.4,95,0.0,3
161141,215747,--,0.074,-0.021,-1.009,71.4,95,0.0,3
161139,215741,--,0.074,-0.021,-1.009,71.4,95,0.0,3
161135,215746,--,0.074,-0.021,-1.009,71.4,95,0.0,3
161134,215743,--,0.074,-0.021,-1.008,71.4,95,0.0,3
161146,215742,--,0.074,-0.021,-1.008,71.4,95,0.0,3
161155,215755,--,0.074,-0.021,-1.008,71.4,95,0.0,3
161155,215740,--,0.075,-0.021,-1.008,71.4,95,0.0,3
161151,215744,--,0.075,-0.021,-1.008,71.4,95,0.0,3
161158,215744,--,0.077,-0.021,-1.009,71.4,95,0.0,3
161163,215744,--,0.078,-0.020,-1.009,71.4,95,0.0,3
161173,215742,--,0.077,-0.020,-1.009,71.4,95,0.0,3
161182,215740,--,0.077,-0.020,-1.008,71.4,95,0.0,3
161177,215742,--,0.077,-0.021,-1.008,71.4,95,0.0,3
161183,215745,--,0.077,-0.021,-1.008,71.4,95,0.0,3
161186,215743,--,0.077,-0.021,-1.008,71.4,95,0.0,3
161184,215741,--,0.079,-0.021,-1.008,71.4,95,0.0,3
161172,215736,--,0.079,-0.021,-1.008,71.4,95,0.0,3
161149,215739,--,0.079,-0.021,-1.008,71.4,95,0.0,3
161121,215705,--,0.079,-0.021,-1.008,71.4,95,0.0,3
161072,215699,--,0.079,-0.021,-1.008,71.4,95,0.0,3
161033,215693,--,0.079,-0.021,-1.008,71.4,95,0.0,3
160984,215651,--,0.079,-0.021,-1.008,71.4,95,0.0,3
160942,215636,--,0.079,-0.021,-1.008,71.4,95,0.0,3
160919,215636,--,0.079,-0.021,-1.008,71.4,95,0.0,3
160901,215624,--,0.079,-0.021,-1.008,71.4,95,0.0,3
160897,215610,--,0.078,-0.020,-1.008,71.4,95,0.0,3
160890,215611,--,0.078,-0.020,-1.007,71.4,95,0.0,3
160897,215614,--,0.078,-0.021,-1.007,71.4,95,0.0,3
160904,215608,--,0.079,-0.022,-1.007,71.4,95,0.0,3
160919,215625,--,0.079,-0.022,-1.007,71.4,95,0.0,3
160919,215632,--,0.079,-0.022,-1.007,71.4,95,0.0,3
160929,215617,--,0.079,-0.022,-1.007,71.4,95,0.0,3
160933,215618,--,0.079,-0.022,-1.007,71.4,95,0.0,3
160926,215612,--,0.076,-0.021,-1.008,71.4,95,0.0,3
160941,215619,--,0.076,-0.021,-1.008,71.4,95,0.0,3
160933,215612,--,0.076,-0.021,-1.008,71.4,95,0.0,3
160926,215613,--,0.077,-0.021,-1.007,71.4,95,0.0,3
160925,215608,--,0.077,-0.021,-1.007,71.4,95,0.0,3
160925,215618,--,0.077,-0.021,-1.007,71.4,95,0.0,3
160920,215619,--,0.077,-0.021,-1.007,71.4,95,0.0,3
160932,215614,--,0.077,-0.021,-1.007,71.4,95,0.0,3
160934,215626,--,0.077,-0.021,-1.007,71.4,95,0.0,3
160956,215624,--,0.077,-0.021,-1.008,71.4,95,0.0,3
160956,215624,--,0.078,-0.021,-1.008,71.4,95,0.0,3
160971,215616,--,0.078,-0.021,-1.009,71.4,95,0.0,3
160981,215641,--,0.075,-0.021,-1.009,71.4,95,0.0,3
160986,215620,--,0.074,-0.022,-1.008,71.4,95,0.0,3
160986,215638,--,0.074,-0.022,-1.008,71.4,95,0.0,3
160985,215626,--,0.075,-0.022,-1.008,71.4,95,0.0,3
160978,215627,--,0.075,-0.022,-1.008,71.4,95,0.0,3
160979,215629,--,0.075,-0.022,-1.008,71.4,95,0.0,3
160973,215629,--,0.077,-0.021,-1.008,71.4,95,0.0,3
160981,215626,--,0.077,-0.021,-1.008,70.8,96,0.0,3
160987,215624,--,0.077,-0.021,-1.008,70.8,96,0.0,3
160986,215621,--,0.078,-0.021,-1.009,70.8,96,0.0,3
160985,215619,--,0.078,-0.021,-1.009,70.8,96,0.0,3
160999,215625,--,0.078,-0.021,-1.009,70.8,96,0.0,3
160993,215608,--,0.078,-0.022,-1.009,70.8,96,0.0,3
161000,215621,--,0.078,-0.022,-1.009,70.8,96,0.0,3
161001,215616,--,0.078,-0.021,-1.009,70.8,96,0.0,3
161009,215622,--,0.077,-0.020,-1.009,70.8,96,0.0,3
161014,215621,--,0.077,-0.021,-1.008,70.8,96,0.0,3
161022,215626,--,0.077,-0.021,-1.009,70.8,96,0.0,3
161033,215624,--,0.077,-0.021,-1.009,70.8,96,0.0,3
161028,215632,--,0.077,-0.021,-1.009,70.8,96,0.0,3
161038,215627,--,0.077,-0.021,-1.009,70.8,96,0.0,3
161049,215629,--,0.077,-0.021,-1.009,70.8,96,0.0,3
161045,215628,--,0.077,-0.021,-1.009,70.8,96,0.0,3
161043,215616,--,0.077,-0.021,-1.009,70.8,96,0.0,3
161056,215626,--,0.077,-0.021,-1.009,70.8,96,0.0,3
161062,215629,--,0.078,-0.021,-1.008,70.8,96,0.0,3
161063,215619,--,0.078,-0.021,-1.008,70.8,96,0.0,3
161068,215615,--,0.078,-0.021,-1.008,70.8,96,0.0,3
161063,215626,--,0.080,-0.021,-1.008,70.8,96,0.0,3
161063,215615,--,0.080,-0.021,-1.008,70.8,96,0.0,3
161073,215617,--,0.080,-0.021,-1.008,70.8,96,0.0,3
161078,215621,--,0.079,-0.021,-1.008,70.8,96,0.0,3
161079,215619,--,0.077,-0.021,-1.008,70.8,96,0.0,3
161087,215623,--,0.078,-0.021,-1.008,70.8,96,0.0,3
161083,215617,--,0.080,-0.021,-1.008,70.8,96,0.0,3
161094,215619,--,0.080,-0.021,-1.008,70.8,96,0.0,3
161098,215623,--,0.080,-0.021,-1.008,70.8,96,0.0,3
161104,215613,--,0.079,-0.021,-1.008,70.8,96,0.0,3
161092,215617,--,0.079,-0.021,-1.008,70.8,96,0.0,3
161113,215621,--,0.079,-0.021,-1.008,70.8,96,0.0,3
161095,215611,--,0.080,-0.021,-1.008,70.8,96,0.0,3
161100,215612,--,0.080,-0.021,-1.008,70.8,96,0.0,3
161104,215615,--,0.080,-0.021,-1.008,70.8,96,0.0,3
161090,215619,--,0.079,-0.020,-1.009,70.8,96,0.0,3
161101,215617,--,0.079,-0.020,-1.009,70.8,96,0.0,3
161103,215609,--,0.079,-0.020,-1.009,70.8,96,0.0,3
161107,215611,--,0.079,-0.020,-1.008,70.8,96,0.0,3
161114,215613,--,0.079,-0.020,-1.008,70.8,96,0.0,3
161112,215607,--,0.079,-0.021,-1.008,70.8,96,0.0,3
161114,215606,--,0.077,-0.021,-1.008,70.8,96,0.0,3
161128,215614,--,0.078,-0.021,-1.008,70.8,96,0.0,3
161135,215624,--,0.079,-0.022,-1.008,70.8,96,0.0,3
161142,215610,--,0.078,-0.022,-1.007,70.8,96,0.0,3
161139,215625,--,0.078,-0.022,-1.007,70.8,96,0.0,3
161151,215618,--,0.078,-0.022,-1.007,70.8,96,0.0,3
161152,215628,--,0.078,-0.022,-1.007,70.8,96,0.0,3
161160,215631,--,0.078,-0.022,-1.007,70.8,96,0.0,3
161164,215621,--,0.078,-0.022,-1.007,70.8,96,0.0,3
161166,215628,--,0.077,-0.022,-1.007,70.8,96,0.0,3
161165,215627,--,0.077,-0.022,-1.007,70.8,96,0.0,3
161156,215618,--,0.077,-0.022,-1.007,70.8,96,0.0,3
161142,215616,--,0.076,-0.022,-1.007,70.8,96,0.0,3
161120,215611,--,0.076,-0.022,-1.007,70.8,96,0.0,3
161068,215588,--,0.076,-0.022,-1.007,70.8,96,0.0,3
161014,215545,--,0.076,-0.022,-1.007,70.8,96,0.0,3
160968,215526,--,0.077,-0.022,-1.007,70.8,96,0.0,3
160927,215509,--,0.080,-0.022,-1.007,70.8,96,0.0,3
160906,215497,--,0.081,-0.022,-1.007,70.8,96,0.0,3
160876,215492,--,0.080,-0.021,-1.007,70.8,96,0.0,3
160875,215489,--,0.079,-0.021,-1.008,70.8,96,0.0,3
160867,215483,--,0.079,-0.021,-1.008,70.8,96,0.0,3
160873,215490,--,0.079,-0.021,-1.008,70.8,96,0.0,3
160888,215489,--,0.079,-0.021,-1.008,70.8,96,0.0,3
160898,215488,--,0.079,-0.021,-1.008,70.8,96,0.0,3
160898,215497,--,0.079,-0.021,-1.008,70.8,96,0.0,3
160903,215490,--,0.079,-0.021,-1.008,70.8,96,0.0,3
160917,215498,--,0.079,-0.021,-1.008,70.8,96,0.0,3
160916,215502,--,0.079,-0.021,-1.009,70.8,96,0.0,3
160916,215487,--,0.079,-0.021,-1.009,70.8,96,0.0,3
160916,215485,--,0.079,-0.021,-1.009,70.8,96,0.0,3
160913,215488,--,0.079,-0.021,-1.010,70.8,96,0.0,3
160909,215491,--,0.079,-0.021,-1.010,70.8,96,0.0,3
160909,215479,--,0.079,-0.021,-1.009,70.8,96,0.0,3
160920,215495,--,0.078,-0.021,-1.009,70.8,96,0.0,3
160931,215489,--,0.078,-0.021,-1.008,70.8,96,100.0,3
160931,215492,--,0.078,-0.021,-1.009,70.8,96,100.0,3
160942,215507,--,0.078,-0.021,-1.009,70.8,96,100.0,3
160945,215501,--,0.078,-0.021,-1.009,70.8,96,100.0,3
160961,215498,--,0.080,-0.021,-1.009,70.8,96,100.0,3
160965,215503,--,0.080,-0.021,-1.009,70.8,96,100.0,3
160978,215502,--,0.080,-0.021,-1.009,70.8,96,100.0,3
160984,215500,--,0.080,-0.021,-1.009,70.8,96,100.0,3
160982,215508,--,0.080,-0.021,-1.009,70.8,96,100.0,3
160970,215492,--,0.080,-0.021,-1.009,70.8,96,100.0,3
160974,215489,--,0.080,-0.021,-1.009,70.8,96,100.0,3
160967,215489,--,0.078,-0.021,-1.008,70.8,96,100.0,3
160958,215488,--,0.078,-0.021,-1.008,70.8,96,100.0,3
160964,215484,--,0.078,-0.021,-1.008,70.8,96,100.0,3
160968,215484,--,0.078,-0.021,-1.008,70.8,96,100.0,3
160972,215488,--,0.079,-0.021,-1.008,70.8,96,100.0,3
160969,215484,--,0.080,-0.021,-1.008,70.8,96,100.0,3
160970,215495,--,0.080,-0.021,-1.008,70.8,96,100.0,3
160976,215490,--,0.081,-0.021,-1.008,70.8,96,100.0,3
160975,215485,--,0.081,-0.021,-1.008,70.8,96,100.0,3
160978,215486,--,0.081,-0.021,-1.009,70.8,96,100.0,3
160979,215488,--,0.081,-0.021,-1.009,70.8,96,100.0,3
160984,215495,--,0.081,-0.021,-1.009,70.8,96,100.0,3
160998,215487,--,0.081,-0.020,-1.008,70.8,96,100.0,3
161010,215498,--,0.081,-0.020,-1.008,70.8,96,100.0,3
161005,215498,--,0.081,-0.020,-1.007,70.8,96,100.0,3
161011,215503,--,0.081,-0.020,-1.007,70.8,96,100.0,3
161021,215504,--,0.081,-0.020,-1.007,70.8,96,100.0,3
161022,215499,--,0.080,-0.020,-1.007,70.8,96,100.0,3
161027,215505,--,0.080,-0.020,-1.007,70.8,96,100.0,3
161025,215489,--,0.080,-0.020,-1.007,70.8,96,100.0,3
161038,215502,--,0.080,-0.020,-1.007,70.8,96,100.0,3
161033,215487,--,0.080,-0.020,-1.008,70.8,96,100.0,3
161040,215501,--,0.079,-0.021,-1.008,70.8,96,100.0,3
161044,215498,--,0.080,-0.021,-1.008,70.8,96,100.0,3
161048,215500,--,0.081,-0.021,-1.008,70.8,96,100.0,3
161057,215503,--,0.081,-0.022,-1.008,70.8,96,100.0,3
161049,215499,--,0.081,-0.022,-1.008,70.8,96,100.0,3
161060,215490,--,0.081,-0.022,-1.008,70.8,96,100.0,3
161064,215497,--,0.081,-0.022,-1.008,70.8,96,100.0,3
161069,215501,--,0.081,-0.022,-1.008,70.8,96,100.0,3
161064,215496,--,0.081,-0.021,-1.008,70.8,96,100.0,3
161068,215497,--,0.081,-0.021,-1.008,70.8,96,100.0,3
161064,215501,--,0.081,-0.021,-1.008,70.8,96,100.0,3
161077,215496,--,0.081,-0.021,-1.008,70.8,96,100.0,3
161067,215490,--,0.081,-0.020,-1.007,70.8,96,100.0,3
161072,215493,--,0.081,-0.020,-1.007,70.8,96,100.0,3
161070,215489,--,0.081,-0.020,-1.007,70.8,96,100.0,3
161079,215483,--,0.082,-0.020,-1.007,70.8,96,100.0,3
161072,215493,--,0.082,-0.020,-1.007,70.8,96,100.0,3
161086,215485,--,0.083,-0.020,-1.007,70.8,96,100.0,3
161084,215485,--,0.084,-0.020,-1.008,70.8,96,100.0,3
161103,215495,--,0.084,-0.020,-1.008,70.8,96,100.0,3
161098,215482,--,0.082,-0.020,-1.007,70.8,96,100.0,3
161101,215492,--,0.082,-0.020,-1.007,70.8,96,100.0,3
161100,215494,--,0.082,-0.020,-1.007,70.8,96,100.0,3
161101,215491,--,0.082,-0.020,-1.007,70.8,96,100.0,3
161108,215498,--,0.080,-0.021,-1.007,70.8,96,100.0,3
161112,215494,--,0.080,-0.021,-1.007,70.8,96,100.0,3
161114,215485,--,0.080,-0.021,-1.007,70.8,96,100.0,3
161109,215494,--,0.082,-0.021,-1.007,70.8,96,100.0,3
161124,215491,--,0.082,-0.021,-1.007,70.8,96,100.0,3
161119,215496,--,0.082,-0.021,-1.007,70.8,96,100.0,3
161135,215503,--,0.083,-0.021,-1.007,70.8,96,100.0,3
161132,215500,--,0.083,-0.021,-1.007,70.8,96,100.0,3
161134,215505,--,0.083,-0.021,-1.007,70.8,96,100.0,3
161146,215496,--,0.082,-0.021,-1.007,70.8,96,100.0,3
161146,215496,--,0.082,-0.020,-1.007,70.8,96,100.0,3
161148,215498,--,0.083,-0.020,-1.007,70.8,96,100.0,3
161137,215495,--,0.083,-0.020,-1.008,70.8,96,100.0,3
161126,215501,--,0.082,-0.020,-1.008,70.8,96,100.0,3
161108,215491,--,0.082,-0.020,-1.008,70.8,96,100.0,3
161063,215472,--,0.081,-0.021,-1.008,70.8,96,100.0,3
161026,215453,--,0.081,-0.021,-1.008,70.8,96,100.0,3
160975,215428,--,0.081,-0.021,-1.008,70.8,96,100.0,3
160933,215399,--,0.082,-0.021,-1.008,70.8,96,100.0,3
160892,215380,--,0.082,-0.021,-1.008,70.8,96,100.0,3
160863,215359,--,0.082,-0.021,-1.008,70.8,96,100.0,3
160850,215354,--,0.083,-0.020,-1.007,70.8,96,100.0,3
160853,215361,--,0.083,-0.020,-1.007,70.8,96,100.0,3
160852,215349,--,0.083,-0.020,-1.007,70.8,96,100.0,3
160857,215372,--,0.083,-0.020,-1.007,70.8,96,100.0,3
160873,215368,--,0.083,-0.020,-1.007,70.8,96,100.0,3
160883,215363,--,0.082,-0.021,-1.008,70.8,96,100.0,3
160893,215371,--,0.081,-0.021,-1.009,70.8,96,100.0,3
160906,215377,--,0.082,-0.020,-1.009,70.8,96,100.0,3
160893,215368,--,0.084,-0.020,-1.009,70.8,96,100.0,3
160909,215386,--,0.083,-0.021,-1.008,70.8,96,100.0,3
160896,215376,--,0.083,-0.021,-1.008,70.8,96,100.0,3
160906,215375,--,0.083,-0.021,-1.008,70.8,96,100.0,3
160894,215370,--,0.082,-0.021,-1.008,70.8,96,100.0,3
160897,215369,--,0.082,-0.021,-1.008,70.8,96,100.0,3
160891,215369,--,0.082,-0.021,-1.008,70.8,96,100.0,3
160895,215381,--,0.082,-0.021,-1.008,70.8,96,100.0,3
160902,215369,--,0.082,-0.021,-1.008,70.8,96,100.0,3
160907,215371,--,0.082,-0.021,-1.008,70.8,96,100.0,3
160912,215373,--,0.083,-0.021,-1.008,70.8,96,100.0,3
160917,215381,--,0.083,-0.021,-1.008,70.8,96,100.0,3
160931,215387,--,0.083,-0.021,-1.008,70.8,96,100.0,3
160944,215386,--,0.083,-0.020,-1.008,70.8,96,100.0,3
160950,215387,--,0.082,-0.020,-1.008,70.8,96,100.0,3
160937,215384,--,0.081,-0.020,-1.008,70.8,96,100.0,3
160932,215383,--,0.083,-0.020,-1.008,70.8,96,100.0,3
160936,215364,--,0.082,-0.022,-1.008,70.8,96,100.0,3
160938,215374,--,0.082,-0.022,-1.008,70.8,96,100.0,3
160932,215374,--,0.081,-0.022,-1.008,70.8,96,100.0,3
160932,215369,--,0.081,-0.022,-1.008,70.8,96,100.0,3
160930,215366,--,0.081,-0.022,-1.008,70.8,96,100.0,3
160928,215370,--,0.080,-0.022,-1.008,70.8,96,100.0,3
160937,215376,--,0.080,-0.022,-1.008,70.8,96,100.0,3
160949,215365,--,0.080,-0.022,-1.008,70.8,96,100.0,3
160950,215379,--,0.080,-0.022,-1.008,70.8,96,100.0,3
160945,215376,--,0.080,-0.021,-1.008,70.8,96,100.0,3
160948,215375,--,0.080,-0.021,-1.008,70.8,96,100.0,3
160954,215385,--,0.080,-0.021,-1.008,70.8,96,100.0,3
160973,215374,--,0.081,-0.021,-1.008,70.8,96,100.0,3
160965,215375,--,0.081,-0.021,-1.008,70.8,96,100.0,3
160982,215385,--,0.083,-0.021,-1.008,70.8,96,100.0,3
160978,215386,--,0.081,-0.021,-1.008,70.8,96,100.0,3
160991,215388,--,0.079,-0.021,-1.008,70.8,96,100.0,3
160990,215384,--,0.080,-0.021,-1.008,70.8,96,100.0,3
160991,215381,--,0.082,-0.021,-1.008,70.8,96,100.0,3
160990,215388,--,0.082,-0.021,-1.008,70.8,96,100.0,3
160997,215385,--,0.082,-0.021,-1.008,70.5,96,100.0,3
160999,215385,--,0.083,-0.021,-1.008,70.5,96,100.0,3
161011,215384,--,0.083,-0.021,-1.008,70.5,96,100.0,3
161006,215387,--,0.082,-0.021,-1.008,70.5,96,100.0,3
161021,215388,--,0.082,-0.021,-1.008,70.5,96,100.0,3
161023,215394,--,0.082,-0.021,-1.008,70.5,96,100.0,3
161016,215392,--,0.081,-0.021,-1.009,70.5,96,100.0,3
161025,215395,--,0.081,-0.021,-1.009,70.5,96,100.0,3
161025,215391,--,0.081,-0.021,-1.009,70.5,96,100.0,3
161032,215388,--,0.081,-0.021,-1.009,70.5,96,100.0,3
161024,215387,--,0.081,-0.021,-1.009,70.5,96,100.0,3
161030,215382,--,0.082,-0.021,-1.009,70.5,96,100.0,3
161033,215388,--,0.081,-0.021,-1.008,70.5,96,100.0,3
161032,215396,--,0.078,-0.021,-1.008,70.5,96,100.0,3
161032,215390,--,0.077,-0.021,-1.009,70.5,96,100.0,3
161038,215372,--,0.077,-0.021,-1.009,70.5,96,100.0,3
161048,215389,--,0.078,-0.022,-1.010,70.5,96,100.0,3
161041,215392,--,0.078,-0.022,-1.010,70.5,96,100.0,3
161049,215385,--,0.078,-0.022,-1.010,70.5,96,100.0,3
161044,215385,--,0.080,-0.022,-1.009,70.5,96,100.0,3
161055,215381,--,0.080,-0.022,-1.009,70.5,96,100.0,3
161046,215391,--,0.080,-0.022,-1.009,70.5,96,100.0,3
161061,215394,--,0.079,-0.022,-1.009,70.5,96,100.0,3
161064,215399,--,0.079,-0.022,-1.009,70.5,96,100.0,3
161060,215395,--,0.079,-0.022,-1.009,70.5,96,100.0,3
161077,215383,--,0.079,-0.022,-1.009,70.5,96,100.0,3
161076,215387,--,0.079,-0.022,-1.009,70.5,96,100.0,3
161077,215398,--,0.079,-0.022,-1.009,70.5,96,100.0,3
161088,215390,--,0.079,-0.022,-1.009,70.5,96,100.0,3
161101,215405,--,0.079,-0.022,-1.009,70.5,96,100.0,3
161094,215400,--,0.079,-0.021,-1.009,70.5,96,100.0,3
161095,215396,--,0.080,-0.021,-1.008,70.5,96,100.0,3
161102,215391,--,0.080,-0.021,-1.008,70.5,96,100.0,3
161101,215393,--,0.080,-0.021,-1.008,70.5,96,100.0,3
161109,215392,--,0.079,-0.021,-1.008,70.5,96,100.0,3
161107,215393,--,0.079,-0.021,-1.008,70.5,96,100.0,3
161118,215402,--,0.079,-0.021,-1.008,70.5,96,100.0,3
161108,215387,--,0.079,-0.021,-1.008,70.5,96,100.0,3
161100,215388,--,0.079,-0.021,-1.008,70.5,96,100.0,3
161067,215385,--,0.079,-0.021,-1.008,70.5,96,100.0,3
161032,215360,--,0.079,-0.021,-1.008,70.5,96,100.0,3
160985,215331,--,0.078,-0.020,-1.008,70.5,96,100.0,3
160941,215316,--,0.078,-0.020,-1.008,70.5,96,100.0,3
160893,215286,--,0.078,-0.020,-1.008,70.5,96,100.0,3
160864,215276,--,0.077,-0.021,-1.008,70.5,96,100.0,3
160844,215255,--,0.079,-0.020,-1.008,70.5,96,100.0,3
160835,215256,--,0.079,-0.020,-1.008,70.5,96,100.0,3
160834,215242,--,0.079,-0.020,-1.008,70.5,96,100.0,3
160844,215262,--,0.078,-0.020,-1.007,70.5,96,100.0,3
160856,215258,--,0.078,-0.021,-1.007,70.5,96,100.0,3
160866,215267,--,0.078,-0.021,-1.007,70.5,96,100.0,3
160880,215277,--,0.078,-0.021,-1.007,70.5,96,100.0,3
160886,215269,--,0.078,-0.021,-1.007,70.5,96,100.0,3
160892,215285,--,0.078,-0.021,-1.008,70.5,96,100.0,3
160900,215280,--,0.078,-0.021,-1.008,70.5,96,100.0,3
160892,215274,--,0.078,-0.021,-1.008,70.5,96,100.0,3
160902,215280,--,0.079,-0.021,-1.008,70.5,96,100.0,3
160908,215276,--,0.079,-0.021,-1.008,70.5,96,100.0,3
160902,215277,--,0.079,-0.021,-1.008,70.5,96,100.0,3
160903,215274,--,0.080,-0.021,-1.008,70.5,96,100.0,3
160895,215280,--,0.080,-0.021,-1.008,70.5,96,100.0,3
160917,215289,--,0.080,-0.021,-1.008,70.5,96,100.0,3
160913,215283,--,0.079,-0.022,-1.009,70.5,96,100.0,3
160922,215276,--,0.079,-0.022,-1.009,70.5,96,100.0,3
160923,215279,--,0.080,-0.022,-1.009,70.5,96,100.0,3
160938,215291,--,0.079,-0.022,-1.009,70.5,96,100.0,3
160933,215289,--,0.078,-0.022,-1.009,70.5,96,100.0,3
160937,215288,--,0.078,-0.022,-1.009,70.5,96,100.0,3
160947,215285,--,0.077,-0.022,-1.009,70.5,96,100.0,3
160945,215286,--,0.077,-0.022,-1.009,70.5,96,100.0,3
160946,215287,--,0.077,-0.022,-1.009,70.5,96,100.0,3
160934,215283,--,0.077,-0.022,-1.009,70.5,96,100.0,3
160937,215285,--,0.077,-0.022,-1.009,70.5,96,100.0,3
160934,215290,--,0.077,-0.022,-1.009,70.5,96,100.0,3
160933,215274,--,0.077,-0.021,-1.009,70.5,96,100.0,3
160930,215282,--,0.077,-0.021,-1.009,70.5,96,100.0,3
160937,215276,--,0.077,-0.021,-1.009,70.5,96,100.0,3
160943,215279,--,0.078,-0.021,-1.009,70.5,96,100.0,3
160945,215266,--,0.078,-0.021,-1.009,70.5,96,100.0,3
160948,215273,--,0.079,-0.021,-1.009,70.5,96,100.0,3
160953,215270,--,0.079,-0.021,-1.009,70.5,96,100.0,3
160950,215272,--,0.079,-0.022,-1.009,70.5,96,100.0,3
160963,215269,--,0.078,-0.022,-1.009,70.5,96,100.0,3
160975,215273,--,0.077,-0.022,-1.009,70.5,96,100.0,3
160967,215275,--,0.077,-0.022,-1.009,70.5,96,100.0,3
160973,215276,--,0.077,-0.022,-1.009,70.5,96,100.0,3
160981,215293,--,0.075,-0.023,-1.009,70.5,96,100.0,3
160996,215286,--,0.075,-0.023,-1.009,70.5,96,100.0,3
160981,215283,--,0.075,-0.023,-1.009,70.5,96,100.0,3
160998,215282,--,0.076,-0.023,-1.009,70.5,96,100.0,3
161007,215288,--,0.076,-0.023,-1.009,70.5,96,100.0,3
161006,215292,--,0.076,-0.023,-1.009,70.5,96,100.0,3
160998,215292,--,0.076,-0.023,-1.009,70.5,96,100.0,3
161003,215286,--,0.078,-0.023,-1.009,70.5,96,100.0,3
161021,215288,--,0.078,-0.023,-1.009,70.5,96,100.0,3
161021,215287,--,0.078,-0.023,-1.009,70.5,96,100.0,3
161024,215282,--,0.080,-0.023,-1.008,70.5,96,100.0,3
161034,215299,--,0.080,-0.023,-1.008,70.5,96,100.0,3
161021,215300,--,0.080,-0.022,-1.008,70.5,96,100.0,3
161032,215288,--,0.081,-0.022,-1.008,70.5,96,100.0,3
161031,215282,--,0.082,-0.022,-1.008,70.4,95,100.0,3
161034,215293,--,0.080,-0.023,-1.008,70.4,95,100.0,3
161039,215293,--,0.080,-0.023,-1.008,70.4,95,100.0,3
161034,215280,--,0.080,-0.022,-1.009,70.4,95,100.0,3
161037,215302,--,0.080,-0.022,-1.009,70.4,95,100.0,3
161044,215300,--,0.080,-0.022,-1.009,70.4,95,100.0,3
161047,215294,--,0.080,-0.022,-1.009,70.4,95,100.0,3
161052,215288,--,0.082,-0.021,-1.009,70.4,95,100.0,3
161053,215297,--,0.082,-0.021,-1.009,70.4,95,100.0,3
161052,215290,--,0.082,-0.021,-1.009,70.4,95,100.0,3
161050,215300,--,0.082,-0.022,-1.009,70.4,95,100.0,3
161043,215289,--,0.082,-0.022,-1.009,70.4,95,100.0,3
161058,215295,--,0.082,-0.022,-1.009,70.4,95,100.0,3
161056,215283,--,0.080,-0.022,-1.009,70.4,95,100.0,3
161067,215277,--,0.079,-0.022,-1.009,70.4,95,100.0,3
161064,215290,--,0.080,-0.022,-1.009,70.4,95,100.0,3
161060,215292,--,0.079,-0.022,-1.009,70.4,95,100.0,3
161075,215293,--,0.078,-0.022,-1.009,70.4,95,100.0,3
161074,215293,--,0.078,-0.022,-1.009,70.4,95,100.0,3
161076,215291,--,0.078,-0.022,-1.009,70.4,95,100.0,3
161109,215299,--,0.079,-0.022,-1.010,70.4,95,100.0,3
161093,215292,--,0.079,-0.022,-1.010,70.4,95,100.0,3
161100,215303,--,0.079,-0.022,-1.010,70.4,95,100.0,3
161101,215291,--,0.081,-0.022,-1.009,70.4,95,100.0,3
161111,215298,--,0.081,-0.022,-1.009,70.4,95,100.0,3
161109,215296,--,0.081,-0.022,-1.009,70.4,95,100.0,3
161124,215309,--,0.081,-0.022,-1.009,70.4,95,100.0,3
161110,215309,--,0.081,-0.022,-1.009,70.4,95,100.0,3
161100,215291,--,0.081,-0.022,-1.009,70.4,95,100.0,3
161069,215288,--,0.081,-0.022,-1.009,70.4,95,100.0,3
161041,215271,--,0.079,-0.022,-1.009,70.4,95,100.0,3
160988,215244,--,0.079,-0.022,-1.008,70.4,95,100.0,3
160943,215226,--,0.081,-0.022,-1.008,70.4,95,100.0,3
160903,215208,--,0.081,-0.021,-1.008,70.4,95,100.0,3
160862,215188,--,0.081,-0.022,-1.007,70.4,95,100.0,3
160843,215182,--,0.081,-0.023,-1.007,70.4,95,100.0,3
160831,215166,--,0.081,-0.023,-1.007,70.4,95,100.0,3
160839,215179,--,0.081,-0.023,-1.007,70.4,95,100.0,3
160836,215174,--,0.082,-0.023,-1.007,70.4,95,100.0,3
160843,215172,--,0.082,-0.023,-1.007,70.4,95,100.0,3
160858,215174,--,0.082,-0.023,-1.007,70.4,95,100.0,3
160862,215175,--,0.082,-0.023,-1.008,70.4,95,100.0,3
160872,215177,--,0.082,-0.023,-1.008,70.4,95,100.0,3
160883,215188,--,0.082,-0.023,-1.008,70.4,95,100.0,3
160891,215187,--,0.082,-0.023,-1.008,70.4,95,100.0,3
160885,215182,--,0.081,-0.023,-1.008,70.4,95,100.0,3
160880,215180,--,0.081,-0.023,-1.008,70.4,95,100.0,3
160875,215181,--,0.081,-0.022,-1.008,70.4,95,100.0,3
160877,215175,--,0.082,-0.023,-1.008,70.4,95,100.0,3
160875,215179,--,0.082,-0.023,-1.008,70.4,95,100.0,3
160870,215171,--,0.083,-0.022,-1.009,70.4,95,100.0,3
160896,215167,--,0.081,-0.022,-1.009,70.4,95,100.0,3
160882,215183,--,0.081,-0.022,-1.009,70.4,95,100.0,3
160890,215187,--,0.081,-0.022,-1.009,70.4,95,100.0,3
160891,215181,--,0.081,-0.022,-1.009,70.4,95,100.0,3
160912,215189,--,0.081,-0.022,-1.009,70.4,95,100.0,3
160924,215192,--,0.081,-0.022,-1.009,70.4,95,100.0,3
160935,215201,--,0.081,-0.022,-1.009,70.4,95,100.0,3
160921,215198,--,0.081,-0.022,-1.009,70.4,95,100.0,3
160928,215197,--,0.081,-0.022,-1.008,70.4,95,100.0,3
160933,215192,--,0.081,-0.022,-1.008,70.4,95,100.0,3
160922,215193,--,0.081,-0.022,-1.008,70.4,95,100.0,3
160915,215190,--,0.081,-0.022,-1.008,70.4,95,100.0,3
160924,215189,--,0.081,-0.022,-1.008,70.4,95,100.0,3
160924,215179,--,0.081,-0.022,-1.008,70.4,95,100.0,3
160936,215198,--,0.082,-0.022,-1.008,70.4,95,100.0,3
160915,215178,--,0.083,-0.022,-1.008,70.4,95,100.0,3
160918,215180,--,0.082,-0.022,-1.008,70.4,95,100.0,3
160936,215190,--,0.081,-0.022,-1.009,70.4,95,100.0,3
160932,215177,--,0.081,-0.022,-1.009,70.4,95,100.0,3
160928,215190,--,0.081,-0.022,-1.009,70.4,95,100.0,3
160947,215187,--,0.081,-0.022,-1.009,70.4,95,100.0,3
160954,215181,--,0.082,-0.022,-1.009,70.4,95,100.0,3
160957,215196,--,0.082,-0.022,-1.009,70.4,95,100.0,3
160965,215199,--,0.082,-0.022,-1.009,70.4,95,100.0,3
160972,215195,--,0.082,-0.022,-1.009,70.4,95,100.0,3
160980,215206,--,0.082,-0.022,-1.009,70.4,95,100.0,3
160977,215199,--,0.082,-0.022,-1.009,70.4,95,100.0,3
160988,215198,--,0.082,-0.022,-1.009,70.4,95,100.0,3
160996,215194,--,0.082,-0.022,-1.009,70.4,95,100.0,3
160999,215204,--,0.082,-0.022,-1.009,70.4,95,100.0,3
161001,215200,--,0.083,-0.022,-1.008,70.4,95,100.0,3
161003,215206,--,0.083,-0.022,-1.008,70.4,95,100.0,3
161005,215192,--,0.083,-0.023,-1.007,70.4,95,100.0,3
161015,215189,--,0.084,-0.023,-1.007,70.4,95,100.0,3
161006,215191,--,0.084,-0.022,-1.008,70.4,95,100.0,3
161014,215200,--,0.084,-0.022,-1.008,70.4,95,100.0,3
161018,215199,--,0.083,-0.022,-1.008,70.4,95,100.0,3
161018,215201,--,0.083,-0.022,-1.008,70.4,95,100.0,3
161028,215192,--,0.083,-0.022,-1.008,70.4,95,100.0,3
161025,215202,--,0.082,-0.022,-1.008,70.4,95,100.0,3
161034,215208,--,0.082,-0.022,-1.008,70.4,95,100.0,3
161037,215206,--,0.082,-0.022,-1.008,70.4,95,100.0,3
161037,215209,--,0.083,-0.023,-1.008,70.4,95,100.0,3
161044,215200,--,0.083,-0.023,-1.008,70.4,95,100.0,3
161061,215199,--,0.083,-0.023,-1.008,70.4,95,100.0,3
161041,215192,--,0.083,-0.023,-1.008,70.4,95,100.0,3
161047,215195,--,0.083,-0.023,-1.009,70.4,95,100.0,3
161063,215210,--,0.083,-0.022,-1.008,70.4,95,100.0,3
161061,215195,--,0.083,-0.022,-1.008,70.4,95,100.0,3
161070,215189,--,0.081,-0.021,-1.008,70.0,95,100.0,3
161069,215195,--,0.081,-0.021,-1.008,70.0,95,100.0,3
161063,215197,--,0.083,-0.022,-1.008,70.0,95,100.0,3
161075,215198,--,0.083,-0.022,-1.008,70.0,95,100.0,3
161062,215204,--,0.082,-0.022,-1.008,70.0,95,100.0,3
161071,215201,--,0.082,-0.022,-1.008,70.0,95,100.0,3
161069,215198,--,0.082,-0.022,-1.008,70.0,95,100.0,3
161084,215190,--,0.082,-0.022,-1.008,70.0,95,100.0,3
161081,215190,--,0.082,-0.022,-1.008,70.0,95,100.0,3
161092,215193,--,0.082,-0.022,-1.008,70.0,95,100.0,3
161092,215201,--,0.082,-0.022,-1.008,70.0,95,100.0,3
161099,215198,--,0.082,-0.022,-1.008,70.0,95,100.0,3
161107,215203,--,0.082,-0.022,-1.008,70.0,95,100.0,3
161110,215193,--,0.082,-0.022,-1.008,70.0,95,100.0,3
161117,215200,--,0.082,-0.021,-1.008,70.0,95,100.0,3
161118,215213,--,0.081,-0.021,-1.008,70.0,95,100.0,3
161121,215207,--,0.080,-0.021,-1.008,70.0,95,100.0,3
161124,215189,--,0.081,-0.022,-1.008,70.0,95,100.0,3
161122,215202,--,0.083,-0.022,-1.007,70.0,95,100.0,3
161099,215187,--,0.083,-0.022,-1.007,70.0,95,100.0,3
161069,215182,--,0.084,-0.022,-1.007,70.0,95,100.0,3
161025,215158,--,0.084,-0.022,-1.007,70.0,95,100.0,3
160976,215143,--,0.084,-0.022,-1.007,70.0,95,100.0,3
160934,215119,--,0.084,-0.022,-1.007,70.0,95,100.0,3
160898,215091,--,0.085,-0.022,-1.008,70.0,95,100.0,3
160874,215078,--,0.085,-0.022,-1.008,70.0,95,100.0,3
160844,215076,--,0.085,-0.022,-1.008,70.0,95,100.0,3
160840,215054,--,0.084,-0.023,-1.007,70.0,95,100.0,3
160844,215060,--,0.084,-0.023,-1.007,70.0,95,100.0,3
160845,215065,--,0.084,-0.023,-1.007,70.0,95,100.0,3
160852,215069,--,0.083,-0.023,-1.007,70.0,95,100.0,3
160856,215081,--,0.083,-0.023,-1.007,70.0,95,100.0,3
160879,215093,--,0.082,-0.023,-1.008,70.0,95,100.0,3
160884,215084,--,0.084,-0.022,-1.008,70.0,95,100.0,3
160892,215081,--,0.085,-0.022,-1.008,70.0,95,100.0,3
160887,215073,--,0.084,-0.022,-1.009,70.0,95,100.0,3
160893,215078,--,0.081,-0.022,-1.009,70.0,95,100.0,3
160892,215075,--,0.081,-0.022,-1.009,70.0,95,100.0,3
160903,215080,--,0.081,-0.022,-1.009,70.0,95,100.0,3
160898,215083,--,0.081,-0.023,-1.008,70.0,95,100.0,3
160889,215085,--,0.081,-0.023,-1.008,70.0,95,100.0,3
160889,215076,--,0.081,-0.023,-1.008,70.0,95,100.0,3
160889,215076,--,0.083,-0.023,-1.009,70.0,95,100.0,3
160888,215073,--,0.083,-0.023,-1.009,70.0,95,100.0,3
160902,215075,--,0.083,-0.023,-1.009,70.0,95,100.0,3
160918,215085,--,0.084,-0.022,-1.009,70.0,95,100.0,3
160922,215092,--,0.084,-0.022,-1.009,70.0,95,100.0,3
160929,215096,--,0.084,-0.022,-1.009,70.0,95,100.0,3
160925,215084,--,0.082,-0.022,-1.009,70.0,95,100.0,3
160925,215080,--,0.082,-0.022,-1.009,70.0,95,100.0,3
160913,215073,--,0.082,-0.022,-1.009,70.0,95,100.0,3
160920,215066,--,0.083,-0.022,-1.008,70.0,95,100.0,3
160924,215066,--,0.084,-0.022,-1.008,70.0,95,100.0,3
160919,215073,--,0.084,-0.022,-1.008,70.0,95,100.0,3
160930,215078,--,0.084,-0.022,-1.009,70.0,95,100.0,3
160918,215066,--,0.084,-0.022,-1.009,70.0,95,100.0,3
160915,215078,--,0.084,-0.022,-1.009,70.0,95,100.0,3
160925,215076,--,0.084,-0.023,-1.009,70.0,95,100.0,3
160922,215077,--,0.084,-0.023,-1.009,70.0,95,100.0,3
160924,215076,--,0.084,-0.023,-1.009,70.0,95,100.0,3
160917,215077,--,0.083,-0.023,-1.009,70.0,95,100.0,3
160930,215071,--,0.083,-0.023,-1.009,70.0,95,100.0,3
160925,215064,--,0.083,-0.023,-1.009,70.0,95,100.0,3
160932,215082,--,0.083,-0.023,-1.009,70.0,95,100.0,3
160943,215079,--,0.083,-0.023,-1.008,70.0,95,100.0,3
160943,215078,--,0.083,-0.023,-1.008,70.0,95,100.0,3
160938,215075,--,0.083,-0.023,-1.008,70.0,95,100.0,3
160937,215073,--,0.083,-0.023,-1.008,70.0,95,100.0,3
160965,215078,--,0.083,-0.022,-1.008,70.0,95,100.0,3
160965,215083,--,0.083,-0.023,-1.008,70.0,95,100.0,3
160966,215077,--,0.083,-0.023,-1.008,70.0,95,100.0,3
160970,215083,--,0.083,-0.023,-1.008,70.0,95,100.0,3
160976,215081,--,0.082,-0.022,-1.009,70.0,95,100.0,3
160982,215078,--,0.082,-0.022,-1.009,70.0,95,100.0,3
160984,215090,--,0.082,-0.022,-1.009,70.0,95,100.0,3
160992,215096,--,0.082,-0.022,-1.009,70.0,95,100.0,3
160995,215075,--,0.083,-0.022,-1.009,70.0,95,100.0,3
160998,215088,--,0.083,-0.022,-1.009,70.0,95,100.0,3
161002,215078,--,0.083,-0.022,-1.009,70.0,95,100.0,3
160997,215086,--,0.083,-0.022,-1.008,70.0,95,100.0,3
160997,215090,--,0.083,-0.022,-1.008,70.0,95,100.0,3
161000,215080,--,0.083,-0.022,-1.008,70.0,95,100.0,3
160996,215084,--,0.083,-0.022,-1.009,70.0,95,100.0,3
161003,215077,--,0.084,-0.022,-1.009,70.0,95,100.0,3
161013,215090,--,0.083,-0.022,-1.009,70.0,95,100.0,3
161011,215072,--,0.081,-0.023,-1.009,70.0,95,100.0,3
161020,215097,--,0.081,-0.023,-1.009,70.0,95,100.0,3
161023,215088,--,0.082,-0.023,-1.009,70.0,95,100.0,3
161020,215093,--,0.082,-0.023,-1.009,70.0,95,100.0,3
161025,215100,--,0.082,-0.023,-1.009,70.0,95,100.0,3
161038,215082,--,0.082,-0.023,-1.009,70.0,95,100.0,3
161035,215091,--,0.083,-0.023,-1.009,70.0,95,100.0,3
161033,215087,--,0.083,-0.023,-1.009,70.0,95,100.0,3
161039,215098,--,0.083,-0.023,-1.009,70.0,95,100.0,3
161042,215098,--,0.086,-0.022,-1.009,70.0,95,100.0,3
161044,215084,--,0.086,-0.022,-1.009,70.0,95,100.0,3
161055,215081,--,0.086,-0.022,-1.009,70.0,95,100.0,3
161057,215079,--,0.085,-0.022,-1.009,70.0,95,100.0,3
161049,215102,--,0.085,-0.022,-1.009,70.0,95,100.0,3
161059,215098,--,0.085,-0.022,-1.009,70.0,95,100.0,3
161066,215098,--,0.082,-0.022,-1.009,69.7,95,100.0,3
161072,215105,--,0.081,-0.022,-1.008,69.7,95,100.0,3
161069,215101,--,0.081,-0.022,-1.008,69.7,95,100.0,3
161080,215111,--,0.080,-0.022,-1.009,69.7,95,100.0,3
161079,215103,--,0.083,-0.023,-1.008,69.7,95,100.0,3
161079,215099,--,0.083,-0.023,-1.008,69.7,95,100.0,3
161073,215099,--,0.083,-0.023,-1.008,69.7,95,100.0,3
161047,215077,--,0.083,-0.023,-1.008,69.7,95,100.0,3
161023,215067,--,0.083,-0.023,-1.008,69.7,95,100.0,3
160981,215069,--,0.082,-0.022,-1.008,69.7,95,100.0,3
160932,215041,--,0.082,-0.022,-1.008,69.7,95,100.0,3
160892,215024,--,0.082,-0.022,-1.008,69.7,95,100.0,3
160859,215004,--,0.081,-0.022,-1.009,69.7,95,100.0,3
160837,214993,--,0.081,-0.022,-1.009,69.7,95,100.0,3
160821,214983,--,0.081,-0.022,-1.009,69.7,95,100.0,3
160818,214975,--,0.081,-0.022,-1.009,69.7,95,100.0,3
160810,214967,--,0.081,-0.022,-1.009,69.7,95,100.0,3
160821,214981,--,0.082,-0.021,-1.009,69.7,95,100.0,3
160826,214979,--,0.083,-0.022,-1.008,69.7,95,100.0,3
160849,214995,--,0.084,-0.023,-1.009,69.7,95,100.0,3
160862,214991,--,0.083,-0.022,-1.009,69.7,95,100.0,3
160864,214987,--,0.082,-0.022,-1.008,69.7,95,100.0,3
160874,214987,--,0.082,-0.022,-1.008,69.7,95,100.0,3
160872,214987,--,0.082,-0.022,-1.008,69.7,95,100.0,3
160867,214997,--,0.081,-0.022,-1.008,69.7,95,100.0,3
160865,214991,--,0.081,-0.022,-1.008,69.7,95,100.0,3
160861,214980,--,0.081,-0.022,-1.008,69.7,95,100.0,3
160854,214993,--,0.081,-0.022,-1.008,69.7,95,100.0,3
160860,214980,--,0.082,-0.021,-1.008,69.7,95,100.0,3
160865,214986,--,0.082,-0.021,-1.008,69.7,95,100.0,3
160875,214991,--,0.082,-0.021,-1.008,69.7,95,100.0,3
160878,214988,--,0.080,-0.022,-1.008,69.7,95,100.0,3
160883,214995,--,0.080,-0.022,-1.008,69.7,95,100.0,3
160884,214995,--,0.080,-0.022,-1.008,69.7,95,100.0,3
160900,214997,--,0.080,-0.022,-1.008,69.7,95,100.0,3
160910,214989,--,0.081,-0.023,-1.008,69.7,95,100.0,3
160904,214988,--,0.081,-0.022,-1.009,69.7,95,100.0,3
160906,214996,--,0.081,-0.022,-1.009,69.7,95,100.0,3
160911,215003,--,0.080,-0.022,-1.009,69.7,95,100.0,3
160901,214998,--,0.079,-0.023,-1.008,69.7,95,100.0,3
160894,214985,--,0.079,-0.023,-1.008,69.7,95,100.0,3
160898,214994,--,0.079,-0.023,-1.008,69.7,95,100.0,3
160899,214988,--,0.079,-0.023,-1.008,69.7,95,100.0,3
160906,214985,--,0.080,-0.023,-1.008,69.7,95,100.0,3
160907,214997,--,0.080,-0.023,-1.008,69.7,95,100.0,3
160910,214984,--,0.080,-0.023,-1.008,69.7,95,100.0,3
160913,214991,--,0.081,-0.023,-1.008,69.7,95,100.0,3
160922,214997,--,0.081,-0.023,-1.008,69.7,95,100.0,3
160934,214990,--,0.081,-0.023,-1.008,69.7,95,100.0,3
160933,214990,--,0.082,-0.022,-1.008,69.7,95,100.0,3
160940,215000,--,0.082,-0.022,-1.008,69.7,95,100.0,3
160942,215012,--,0.081,-0.022,-1.008,69.7,95,100.0,3
160960,215006,--,0.079,-0.022,-1.008,69.7,95,100.0,3
160957,215003,--,0.078,-0.022,-1.008,69.7,95,100.0,3
160950,215002,--,0.079,-0.022,-1.008,69.7,95,100.0,3
160962,214992,--,0.080,-0.022,-1.009,69.7,95,100.0,3
160964,215006,--,0.080,-0.022,-1.009,69.7,95,100.0,3
160966,214994,--,0.080,-0.022,-1.009,69.7,95,100.0,3
160965,214993,--,0.079,-0.023,-1.009,69.7,95,100.0,3
160979,214993,--,0.079,-0.023,-1.009,69.7,95,100.0,3
160982,214993,--,0.079,-0.023,-1.009,69.7,95,100.0,3
160985,214997,--,0.079,-0.023,-1.009,69.7,95,100.0,3
160990,214999,--,0.079,-0.023,-1.009,69.7,95,100.0,3
160986,214993,--,0.079,-0.023,-1.009,69.7,95,100.0,3
160994,214997,--,0.079,-0.022,-1.010,69.7,95,100.0,3
160989,215010,--,0.079,-0.022,-1.010,69.7,95,100.0,3
160998,215004,--,0.079,-0.022,-1.010,69.7,95,100.0,3
161005,215003,--,0.079,-0.022,-1.010,69.7,95,100.0,3
161000,214996,--,0.080,-0.022,-1.009,69.7,95,100.0,3
161001,215003,--,0.079,-0.022,-1.009,69.7,95,100.0,3
161004,214994,--,0.080,-0.023,-1.009,69.7,95,100.0,3
161014,215000,--,0.081,-0.022,-1.009,69.7,95,100.0,3
161023,215012,--,0.080,-0.022,-1.008,69.7,95,100.0,3
161020,215004,--,0.079,-0.022,-1.008,69.7,95,100.0,3
161018,215000,--,0.079,-0.022,-1.008,69.7,95,100.0,3
161022,215001,--,0.079,-0.022,-1.008,69.7,95,100.0,3
161023,214997,--,0.079,-0.022,-1.008,69.7,95,100.0,3
161023,215000,--,0.079,-0.022,-1.008,69.7,95,100.0,3
161027,215004,--,0.079,-0.022,-1.008,69.7,95,100.0,3
161026,215000,--,0.079,-0.021,-1.008,69.7,95,100.0,3
161026,215009,--,0.079,-0.021,-1.008,69.7,95,100.0,3
161034,215002,--,0.079,-0.021,-1.008,69.7,95,100.0,3
161036,214996,--,0.079,-0.021,-1.008,69.7,95,100.0,3
161052,215010,--,0.079,-0.021,-1.008,69.7,95,100.0,3
161051,215006,--,0.079,-0.021,-1.008,69.7,95,100.0,3
161058,215004,--,0.079,-0.021,-1.009,69.7,95,100.0,3
161056,215001,--,0.077,-0.021,-1.009,69.7,95,100.0,3
161057,215003,--,0.076,-0.021,-1.009,69.7,95,100.0,3
161067,215004,--,0.077,-0.021,-1.009,69.7,95,100.0,3
161077,214999,--,0.075,-0.021,-1.008,69.7,95,100.0,3
161074,215008,--,0.075,-0.021,-1.008,69.7,95,100.0,3
161072,214998,--,0.078,-0.021,-1.008,69.7,95,100.0,3
161072,215010,--,0.078,-0.021,-1.008,69.7,95,100.0,3
161078,215001,--,0.078,-0.021,-1.008,69.7,95,100.0,3
161070,214997,--,0.078,-0.021,-1.008,69.7,95,100.0,3
161050,214996,--,0.079,-0.021,-1.008,69.7,95,100.0,3
161013,214981,--,0.079,-0.021,-1.008,69.7,95,100.0,3
160970,214959,--,0.079,-0.021,-1.008,69.7,95,100.0,3
160924,214939,--,0.077,-0.021,-1.008,69.7,95,100.0,3
160883,214908,--,0.077,-0.021,-1.008,69.7,95,100.0,3
160843,214894,--,0.077,-0.021,-1.008,69.4,95,100.0,3
160815,214874,--,0.076,-0.021,-1.008,69.4,95,100.0,3
160794,214866,--,0.079,-0.022,-1.007,69.4,95,100.0,3
160780,214862,--,0.079,-0.022,-1.008,69.4,95,100.0,3
160785,214845,--,0.079,-0.021,-1.008,69.4,95,100.0,3
160788,214873,--,0.079,-0.022,-1.008,69.4,95,100.0,3
160790,214853,--,0.079,-0.022,-1.008,69.4,95,100.0,3
160803,214861,--,0.078,-0.022,-1.009,69.4,95,100.0,3
160812,214875,--,0.078,-0.022,-1.009,69.4,95,100.0,3
160817,214883,--,0.078,-0.022,-1.009,69.4,95,100.0,3
160832,214877,--,0.078,-0.022,-1.009,69.4,95,100.0,3
160830,214866,--,0.078,-0.022,-1.009,69.4,95,100.0,3
160818,214876,--,0.078,-0.022,-1.009,69.4,95,100.0,3
160830,214876,--,0.078,-0.022,-1.009,69.4,95,100.0,3
160819,214863,--,0.078,-0.022,-1.009,69.4,95,100.0,3
160816,214869,--,0.078,-0.022,-1.009,69.4,95,100.0,3
160824,214875,--,0.078,-0.022,-1.009,69.4,95,100.0,3
160810,214861,--,0.078,-0.022,-1.008,69.4,95,100.0,3
160808,214867,--,0.078,-0.022,-1.008,69.4,95,100.0,3
160816,214862,--,0.076,-0.022,-1.008,69.4,95,100.0,3
160823,214866,--,0.077,-0.021,-1.008,69.4,95,100.0,3
160845,214868,--,0.079,-0.022,-1.009,69.4,95,100.0,3
160850,214875,--,0.079,-0.022,-1.008,69.4,95,100.0,3
160857,214883,--,0.078,-0.022,-1.008,69.4,95,100.0,3
160863,214879,--,0.078,-0.022,-1.008,69.4,95,100.0,3
160865,214885,--,0.078,-0.022,-1.008,69.4,95,100.0,3
160866,214872,--,0.078,-0.022,-1.008,69.4,95,100.0,3
160864,214873,--,0.078,-0.022,-1.008,69.4,95,100.0,3
160853,214865,--,0.077,-0.022,-1.008,69.4,95,100.0,3
160854,214860,--,0.077,-0.022,-1.008,69.4,95,100.0,3
160869,214878,--,0.077,-0.022,-1.008,69.4,95,100.0,3
160856,214872,--,0.077,-0.022,-1.008,69.4,95,100.0,3
160855,214867,--,0.076,-0.021,-1.008,69.4,95,100.0,3
160859,214876,--,0.076,-0.021,-1.008,69.4,95,100.0,3
160860,214860,--,0.076,-0.021,-1.008,69.4,95,100.0,3
160859,214873,--,0.077,-0.022,-1.008,69.4,95,100.0,3
160870,214877,--,0.078,-0.022,-1.008,69.4,95,100.0,3
160872,214865,--,0.079,-0.022,-1.008,69.4,95,100.0,3
160878,214867,--,0.078,-0.022,-1.008,69.4,95,100.0,3
160876,214865,--,0.077,-0.022,-1.008,69.4,95,100.0,3
160884,214876,--,0.076,-0.022,-1.009,69.4,95,100.0,3
160896,214879,--,0.076,-0.022,-1.009,69.4,95,100.0,3
160899,214878,--,0.076,-0.022,-1.009,69.4,95,100.0,3
160897,214881,--,0.076,-0.022,-1.009,69.4,95,100.0,3
160907,214879,--,0.076,-0.022,-1.008,69.4,95,100.0,3
160905,214887,--,0.076,-0.022,-1.008,69.4,95,100.0,3
160914,214876,--,0.076,-0.022,-1.008,69.4,95,100.0,3
160916,214877,--,0.078,-0.021,-1.008,69.4,95,100.0,3
160919,214886,--,0.078,-0.021,-1.008,69.4,95,100.0,3
160924,214878,--,0.078,-0.021,-1.008,69.4,95,100.0,3
160929,214875,--,0.079,-0.022,-1.009,69.4,95,100.0,3
160936,214881,--,0.079,-0.022,-1.009,69.4,95,100.0,3
160937,214872,--,0.079,-0.022,-1.009,69.4,95,100.0,3
160946,214869,--,0.079,-0.022,-1.009,69.4,95,100.0,3
160948,214888,--,0.077,-0.022,-1.008,69.4,95,100.0,3
160953,214887,--,0.077,-0.022,-1.009,69.4,95,100.0,3
160946,214881,--,0.077,-0.021,-1.009,69.4,95,100.0,3
160959,214887,--,0.076,-0.021,-1.009,69.4,95,100.0,3
160953,214892,--,0.076,-0.021,-1.009,69.4,95,100.0,3
160957,214886,--,0.077,-0.021,-1.008,69.4,95,100.0,3
160959,214891,--,0.077,-0.021,-1.008,69.4,95,100.0,3
160955,214886,--,0.077,-0.021,-1.008,69.4,95,100.0,3
160973,214872,--,0.077,-0.022,-1.007,69.4,95,100.0,3
160970,214890,--,0.077,-0.022,-1.007,69.4,95,100.0,3
160966,214887,--,0.077,-0.022,-1.007,69.4,95,100.0,3
160975,214890,--,0.078,-0.022,-1.008,69.4,95,100.0,3
160979,214887,--,0.078,-0.022,-1.008,69.4,95,100.0,3
160975,214884,--,0.078,-0.022,-1.008,69.4,95,100.0,3
160992,214897,--,0.079,-0.021,-1.009,69.4,95,100.0,3
160975,214880,--,0.079,-0.021,-1.009,69.4,95,100.0,3
160983,214889,--,0.078,-0.021,-1.009,69.4,95,100.0,3
160978,214891,--,0.078,-0.021,-1.008,69.4,95,100.0,3
160985,214874,--,0.078,-0.022,-1.009,69.4,95,100.0,3
160986,214885,--,0.077,-0.021,-1.009,69.4,95,100.0,3
161004,214884,--,0.078,-0.021,-1.009,69.4,95,100.0,3
161009,214875,--,0.078,-0.021,-1.009,69.4,95,100.0,3
161013,214891,--,0.078,-0.021,-1.009,69.4,95,100.0,3
161006,214885,--,0.077,-0.021,-1.008,69.4,95,100.0,3
161014,214883,--,0.077,-0.021,-1.008,69.4,95,100.0,3
161019,214884,--,0.077,-0.021,-1.008,69.4,95,100.0,3
161011,214886,--,0.078,-0.021,-1.008,69.4,95,100.0,3
161002,214882,--,0.078,-0.021,-1.008,69.4,95,100.0,3
160984,214872,--,0.078,-0.021,-1.008,69.4,95,100.0,3
160934,214846,--,0.078,-0.021,-1.008,69.4,95,100.0,3
160893,214837,--,0.079,-0.021,-1.008,69.4,95,100.0,3
160858,214822,--,0.079,-0.021,-1.008,69.4,95,100.0,3
160820,214791,--,0.079,-0.021,-1.008,69.4,95,100.0,3
160785,214786,--,0.078,-0.022,-1.009,69.4,95,100.0,3
160764,214777,--,0.080,-0.022,-1.009,69.4,95,100.0,3
160745,214766,--,0.081,-0.022,-1.008,69.4,95,100.0,3
160743,214761,--,0.080,-0.021,-1.008,69.4,95,100.0,3
160752,214770,--,0.079,-0.022,-1.008,69.4,95,100.0,3
160760,214763,--,0.079,-0.022,-1.008,69.4,95,100.0,3
160767,214783,--,0.079,-0.022,-1.008,69.4,95,100.0,3
160783,214773,--,0.079,-0.022,-1.008,69.4,95,100.0,3
160788,214792,--,0.080,-0.023,-1.008,69.4,95,100.0,3
160793,214795,--,0.080,-0.023,-1.008,69.4,95,100.0,3
160796,214797,--,0.080,-0.023,-1.008,69.4,95,100.0,3
160802,214795,--,0.080,-0.023,-1.008,69.4,95,100.0,3
160798,214795,--,0.080,-0.022,-1.008,69.4,95,100.0,3
160795,214801,--,0.080,-0.022,-1.008,69.2,95,100.0,3
160797,214788,--,0.079,-0.021,-1.008,69.2,95,100.0,3
160788,214799,--,0.079,-0.021,-1.008,69.2,95,100.0,3
160800,214787,--,0.079,-0.021,-1.008,69.2,95,100.0,3
160801,214784,--,0.080,-0.022,-1.008,69.2,95,100.0,3
160802,214785,--,0.081,-0.022,-1.009,69.2,95,100.0,3
160811,214784,--,0.080,-0.023,-1.008,69.2,95,100.0,3
160830,214799,--,0.081,-0.023,-1.008,69.2,95,100.0,3
160836,214797,--,0.078,-0.023,-1.008,69.2,95,100.0,3
160839,214805,--,0.078,-0.023,-1.008,69.2,95,100.0,3
160842,214803,--,0.076,-0.024,-1.007,69.2,95,100.0,3
160843,214817,--,0.076,-0.024,-1.007,69.2,95,100.0,3
160854,214814,--,0.076,-0.024,-1.007,69.2,95,100.0,3
160833,214797,--,0.077,-0.023,-1.007,69.2,95,100.0,3
160827,214801,--,0.077,-0.023,-1.007,69.2,95,100.0,3
160828,214793,--,0.077,-0.023,-1.007,69.2,95,100.0,3
160825,214794,--,0.077,-0.023,-1.007,69.2,95,100.0,3
160811,214786,--,0.080,-0.023,-1.008,69.2,95,100.0,3
160818,214781,--,0.080,-0.023,-1.008,69.2,95,100.0,3
160812,214784,--,0.080,-0.023,-1.008,69.2,95,100.0,3
160803,214782,--,0.080,-0.024,-1.008,69.2,95,100.0,3
160814,214784,--,0.079,-0.024,-1.008,69.2,95,100.0,3
160809,214776,--,0.080,-0.023,-1.008,69.2,95,100.0,3
160810,214779,--,0.080,-0.023,-1.008,69.2,95,100.0,3
160805,214793,--,0.079,-0.023,-1.008,69.2,95,100.0,3
160826,214797,--,0.079,-0.023,-1.008,69.2,95,100.0,3
160829,214793,--,0.081,-0.022,-1.007,69.2,95,100.0,3
160841,214803,--,0.081,-0.022,-1.007,69.2,95,100.0,3
160851,214809,--,0.081,-0.022,-1.007,69.2,95,100.0,3
160856,214807,--,0.083,-0.021,-1.007,69.2,95,100.0,3
160873,214810,--,0.083,-0.021,-1.007,69.2,95,100.0,3
160871,214806,--,0.083,-0.021,-1.007,69.2,95,100.0,3
160900,214811,--,0.084,-0.021,-1.008,69.2,95,100.0,3
160894,214799,--,0.084,-0.021,-1.008,69.2,95,100.0,3
160900,214801,--,0.084,-0.021,-1.008,69.2,95,100.0,3
160908,214803,--,0.084,-0.021,-1.008,69.2,95,100.0,3
160922,214801,--,0.082,-0.021,-1.008,69.2,95,100.0,3
160937,214798,--,0.082,-0.021,-1.008,69.2,95,100.0,3
160952,214813,--,0.079,-0.021,-1.007,69.2,95,100.0,3
160964,214802,--,0.080,-0.022,-1.008,69.2,95,100.0,3
160964,214801,--,0.083,-0.023,-1.008,69.2,95,100.0,3
160982,214788,--,0.082,-0.022,-1.008,69.2,95,100.0,3
160993,214796,--,0.086,-0.022,-1.007,69.2,95,100.0,3
160990,214798,--,0.086,-0.022,-1.007,69.2,95,100.0,3
160996,214791,--,0.092,-0.022,-1.007,69.2,95,100.0,3
161008,214783,--,0.092,-0.022,-1.007,69.2,95,100.0,3
161015,214792,--,0.092,-0.022,-1.007,69.2,95,100.0,3
161023,214792,--,0.096,-0.021,-1.008,69.2,95,100.0,3
161020,214786,--,0.096,-0.021,-1.008,69.2,95,100.0,3
161027,214784,--,0.096,-0.021,-1.008,69.2,95,100.0,3
161052,214783,--,0.096,-0.021,-1.008,69.2,95,100.0,3
161067,214764,--,0.096,-0.020,-1.008,69.2,95,100.0,3
161083,214758,--,0.096,-0.020,-1.008,69.2,95,100.0,3
161099,214750,--,0.096,-0.020,-1.008,69.2,95,100.0,3
161097,214745,--,0.096,-0.020,-1.008,69.2,95,100.0,3
161107,214730,--,0.097,-0.021,-1.009,69.2,95,100.0,3
161113,214712,--,0.097,-0.021,-1.009,69.2,95,100.0,3
161124,214724,--,0.098,-0.020,-1.008,69.2,95,100.0,3
161135,214710,--,0.100,-0.021,-1.008,69.2,95,100.0,3
161141,214711,--,0.100,-0.021,-1.007,69.2,95,100.0,3
161146,214714,--,0.100,-0.021,-1.007,69.2,95,100.0,3
161158,214707,--,0.100,-0.021,-1.007,69.2,95,100.0,3
161178,214708,--,0.100,-0.021,-1.007,69.2,95,100.0,3
161186,214711,--,0.100,-0.022,-1.007,69.2,95,100.0,3
161181,214704,--,0.100,-0.022,-1.007,69.2,95,100.0,3
161194,214698,--,0.100,-0.022,-1.007,69.2,95,100.0,3
161199,214697,--,0.100,-0.022,-1.007,69.2,95,100.0,3
161198,214708,--,0.100,-0.022,-1.007,69.2,95,100.0,3
161196,214690,--,0.100,-0.022,-1.007,69.2,95,100.0,3
161157,214680,--,0.100,-0.021,-1.007,69.2,95,100.0,3
161121,214647,--,0.100,-0.021,-1.007,69.2,95,100.0,3
161073,214622,--,0.100,-0.021,-1.007,69.2,95,100.0,3
161016,214595,--,0.100,-0.021,-1.007,69.2,95,100.0,3
160979,214578,--,0.100,-0.020,-1.007,0.0,0,100.0,3
160948,214563,--,0.100,-0.020,-1.007,0.0,0,100.0,3
160932,214554,--,0.101,-0.021,-1.008,0.0,0,100.0,3
160925,214546,--,0.101,-0.021,-1.008,0.0,0,100.0,3
160924,214540,--,0.101,-0.021,-1.008,0.0,0,100.0,3
160931,214536,--,0.102,-0.022,-1.007,0.0,0,100.0,3
160945,214539,--,0.102,-0.022,-1.007,0.0,0,100.0,3
160955,214534,--,0.102,-0.022,-1.007,0.0,0,100.0,3
160957,214542,--,0.102,-0.022,-1.007,0.0,0,100.0,3
160968,214533,--,0.102,-0.022,-1.007,0.0,0,100.0,3
160972,214523,--,0.102,-0.022,-1.007,0.0,0,100.0,3
160965,214516,--,0.103,-0.020,-1.007,0.0,0,100.0,3
160959,214521,--,0.103,-0.020,-1.007,0.0,0,100.0,3
160946,214515,--,0.103,-0.020,-1.007,0.0,0,100.0,3
160947,214504,--,0.103,-0.019,-1.007,0.0,0,100.0,3
160950,214511,--,0.103,-0.019,-1.007,0.0,0,100.0,3
160941,214497,--,0.103,-0.020,-1.007,0.0,0,100.0,3
160946,214491,--,0.103,-0.021,-1.007,0.0,0,100.0,3
160959,214486,--,0.102,-0.021,-1.007,0.0,0,100.0,3
160971,214488,--,0.102,-0.021,-1.007,0.0,0,100.0,3
160963,214482,--,0.102,-0.021,-1.007,0.0,0,100.0,3
160969,214479,--,0.102,-0.021,-1.007,0.0,0,100.0,3
160981,214490,--,0.102,-0.021,-1.007,0.0,0,100.0,3
160988,214477,--,0.101,-0.021,-1.008,0.0,0,100.0,3
160974,214479,--,0.101,-0.021,-1.008,0.0,0,100.0,3
160969,214467,--,0.101,-0.021,-1.008,0.0,0,100.0,3
160957,214473,--,0.101,-0.021,-1.008,0.0,0,100.0,3
160961,214471,--,0.101,-0.021,-1.008,0.0,0,100.0,3
160959,214463,--,0.101,-0.021,-1.007,0.0,0,100.0,3
160960,214468,--,0.101,-0.021,-1.007,0.0,0,100.0,3
160957,214464,--,0.101,-0.021,-1.007,0.0,0,100.0,3
160950,214468,--,0.101,-0.022,-1.007,0.0,0,100.0,3
160958,214463,--,0.101,-0.022,-1.007,0.0,0,100.0,3
160950,214470,--,0.101,-0.022,-1.007,0.0,0,100.0,3
160948,214460,--,0.101,-0.023,-1.008,0.0,0,100.0,3
160954,214456,--,0.101,-0.022,-1.008,0.0,0,100.0,3
160954,214460,--,0.100,-0.021,-1.008,0.0,0,100.0,3
160941,214448,--,0.100,-0.021,-1.008,0.0,0,100.0,3
160950,214437,--,0.100,-0.021,-1.007,0.0,0,100.0,3
160942,214433,--,0.100,-0.021,-1.007,0.0,0,100.0,3
160937,214429,--,0.100,-0.021,-1.007,0.0,0,100.0,3
160939,214442,--,0.101,-0.021,-1.007,0.0,0,100.0,3
160935,214438,--,0.101,-0.021,-1.007,0.0,0,100.0,3
160939,214441,--,0.101,-0.021,-1.007,0.0,0,100.0,3
160942,214443,--,0.101,-0.021,-1.007,0.0,0,100.0,3
160947,214428,--,0.102,-0.021,-1.007,0.0,0,100.0,3
160945,214451,--,0.102,-0.021,-1.007,0.0,0,100.0,3
160967,214436,--,0.102,-0.021,-1.007,0.0,0,100.0,3
160964,214437,--,0.102,-0.022,-1.006,0.0,0,100.0,3
160984,214443,--,0.102,-0.022,-1.006,0.0,0,100.0,3
160982,214440,--,0.102,-0.021,-1.007,0.0,0,100.0,3
160982,214431,--,0.102,-0.021,-1.007,0.0,0,100.0,3
160979,214438,--,0.101,-0.020,-1.007,0.0,0,100.0,3
160970,214418,--,0.101,-0.020,-1.008,0.0,0,100.0,3
160974,214428,--,0.100,-0.021,-1.008,0.0,0,100.0,3
160959,214422,--,0.100,-0.021,-1.008,0.0,0,100.0,3
160959,214426,--,0.100,-0.021,-1.008,0.0,0,100.0,3
160958,214424,--,0.100,-0.021,-1.007,0.0,0,100.0,3
160960,214418,--,0.100,-0.021,-1.007,0.0,0,100.0,3
160965,214416,--,0.100,-0.021,-1.007,0.0,0,100.0,3
160963,214406,--,0.101,-0.020,-1.007,0.0,0,100.0,3
160969,214402,--,0.101,-0.020,-1.007,0.0,0,100.0,3
160958,214394,--,0.101,-0.020,-1.007,0.0,0,100.0,3
160959,214405,--,0.102,-0.020,-1.008,0.0,0,100.0,3
160964,214407,--,0.102,-0.020,-1.008,0.0,0,100.0,3
160970,214402,--,0.102,-0.020,-1.008,0.0,0,100.0,3
160965,214399,--,0.102,-0.021,-1.008,0.0,0,100.0,3
160970,214417,--,0.101,-0.020,-1.007,0.0,0,100.0,3
160972,214406,--,0.101,-0.020,-1.007,0.0,0,100.0,3
160970,214398,--,0.101,-0.021,-1.007,0.0,0,100.0,3
160972,214399,--,0.102,-0.022,-1.007,0.0,0,100.0,3
160972,214400,--,0.102,-0.022,-1.007,0.0,0,100.0,3
160973,214395,--,0.102,-0.022,-1.007,0.0,0,100.0,3
160978,214392,--,0.102,-0.022,-1.007,0.0,0,100.0,3
160982,214396,--,0.102,-0.022,-1.007,0.0,0,100.0,3
160972,214403,--,0.102,-0.022,-1.006,0.0,0,100.0,3
160987,214396,--,0.102,-0.022,-1.006,0.0,0,100.0,3
160967,214404,--,0.102,-0.022,-1.006,0.0,0,100.0,3
160960,214391,--,0.102,-0.022,-1.007,0.0,0,100.0,3
160907,214374,--,0.102,-0.022,-1.007,0.0,0,100.0,3
160860,214356,--,0.102,-0.022,-1.007,0.0,0,100.0,3
160812,214339,--,0.102,-0.022,-1.007,0.0,0,100.0,3
160765,214319,--,0.102,-0.023,-1.008,0.0,0,100.0,3
160729,214302,--,0.102,-0.023,-1.008,0.0,0,100.0,3
160692,214296,--,0.101,-0.023,-1.008,0.0,0,100.0,3
160665,214276,--,0.100,-0.024,-1.007,0.0,0,100.0,3
160650,214273,--,0.100,-0.024,-1.007,0.0,0,100.0,3
160647,214271,--,0.101,-0.023,-1.007,0.0,0,100.0,3
160655,214286,--,0.101,-0.023,-1.008,0.0,0,100.0,3
160663,214291,--,0.101,-0.023,-1.008,0.0,0,100.0,3
160670,214291,--,0.101,-0.023,-1.007,0.0,0,100.0,3
160676,214283,--,0.101,-0.023,-1.007,0.0,0,100.0,3
160682,214287,--,0.101,-0.023,-1.007,0.0,0,100.0,3
160681,214289,--,0.101,-0.023,-1.007,0.0,0,100.0,3
160683,214286,--,0.101,-0.023,-1.007,0.0,0,100.0,3
160680,214289,--,0.101,-0.023,-1.007,0.0,0,100.0,3
160679,214285,--,0.101,-0.023,-1.007,0.0,0,100.0,3
160677,214283,--,0.101,-0.022,-1.007,0.0,0,100.0,3
160669,214284,--,0.101,-0.022,-1.007,0.0,0,100.0,3
160675,214273,--,0.101,-0.022,-1.007,0.0,0,100.0,3
160667,214268,--,0.101,-0.023,-1.007,0.0,0,100.0,3
160681,214268,--,0.101,-0.023,-1.007,0.0,0,100.0,3
160677,214277,--,0.101,-0.023,-1.008,0.0,0,100.0,3
160678,214273,--,0.101,-0.023,-1.008,0.0,0,100.0,3
160690,214278,--,0.100,-0.023,-1.007,0.0,0,100.0,3
160688,214274,--,0.099,-0.024,-1.007,0.0,0,100.0,3
160687,214269,--,0.099,-0.024,-1.007,0.0,0,100.0,3
160677,214275,--,0.099,-0.024,-1.007,0.0,0,100.0,3
160684,214264,--,0.099,-0.023,-1.007,0.0,0,100.0,3
160680,214266,--,0.099,-0.023,-1.007,0.0,0,100.0,3
160670,214264,--,0.099,-0.023,-1.007,0.0,0,100.0,3
160664,214261,--,0.099,-0.023,-1.007,0.0,0,100.0,3
160670,214254,--,0.099,-0.022,-1.007,0.0,0,100.0,3
160664,214261,--,0.099,-0.022,-1.007,0.0,0,100.0,3
160686,214278,--,0.099,-0.022,-1.007,0.0,0,100.0,3
160680,214272,--,0.099,-0.022,-1.007,0.0,0,100.0,3
160682,214260,--,0.099,-0.022,-1.007,0.0,0,100.0,3
160671,214264,--,0.099,-0.022,-1.007,0.0,0,100.0,3
160677,214258,--,0.100,-0.023,-1.007,0.0,0,100.0,3
160697,214261,--,0.100,-0.023,-1.008,0.0,0,100.0,3
160685,214258,--,0.100,-0.023,-1.007,0.0,0,100.0,3
160685,214262,--,0.099,-0.023,-1.007,0.0,0,100.0,3
160691,214266,--,0.100,-0.023,-1.007,0.0,0,100.0,3
160692,214271,--,0.100,-0.023,-1.007,0.0,0,100.0,3
160683,214278,--,0.100,-0.023,-1.006,0.0,0,100.0,3
160685,214273,--,0.100,-0.023,-1.006,0.0,0,100.0,3
160677,214282,--,0.100,-0.023,-1.006,0.0,0,100.0,3
160686,214274,--,0.100,-0.023,-1.007,0.0,0,100.0,3
160691,214274,--,0.100,-0.023,-1.007,0.0,0,100.0,3
160699,214278,--,0.100,-0.023,-1.007,0.0,0,100.0,3
160693,214275,--,0.100,-0.023,-1.007,0.0,0,100.0,3
160696,214276,--,0.100,-0.023,-1.007,0.0,0,100.0,3
160695,214289,--,0.100,-0.023,-1.007,0.0,0,100.0,3
160702,214278,--,0.098,-0.022,-1.007,0.0,0,100.0,3
160703,214290,--,0.098,-0.022,-1.007,0.0,0,100.0,3
160695,214291,--,0.099,-0.022,-1.007,0.0,0,100.0,3
160706,214288,--,0.100,-0.022,-1.007,0.0,0,100.0,3
160704,214280,--,0.100,-0.022,-1.007,0.0,0,100.0,3
160716,214294,--,0.100,-0.023,-1.007,0.0,0,100.0,3
160705,214290,--,0.099,-0.023,-1.008,0.0,0,100.0,3
160714,214282,--,0.099,-0.023,-1.008,0.0,0,100.0,3
160723,214288,--,0.099,-0.023,-1.008,0.0,0,100.0,3
160732,214286,--,0.098,-0.023,-1.007,0.0,0,100.0,3
160730,214296,--,0.098,-0.023,-1.007,0.0,0,100.0,3
160731,214291,--,0.098,-0.023,-1.007,0.0,0,100.0,3
160736,214314,--,0.098,-0.023,-1.007,0.0,0,100.0,3
160736,214297,--,0.098,-0.024,-1.006,0.0,0,100.0,3
160740,214311,--,0.098,-0.024,-1.006,0.0,0,100.0,3
160742,214307,--,0.098,-0.024,-1.006,0.0,0,100.0,3
160751,214315,--,0.098,-0.024,-1.007,0.0,0,100.0,3
160753,214311,--,0.098,-0.024,-1.007,0.0,0,100.0,3
160757,214312,--,0.098,-0.024,-1.007,0.0,0,100.0,3
160763,214317,--,0.097,-0.023,-1.008,0.0,0,100.0,3
160757,214311,--,0.098,-0.023,-1.007,0.0,0,100.0,3
160760,214324,--,0.099,-0.023,-1.007,0.0,0,100.0,3
160758,214317,--,0.100,-0.023,-1.006,0.0,0,100.0,3
160756,214305,--,0.100,-0.022,-1.006,0.0,0,100.0,3
160740,214313,--,0.100,-0.024,-1.006,0.0,0,100.0,3
160714,214293,--,0.100,-0.024,-1.006,0.0,0,100.0,3
160682,214290,--,0.100,-0.024,-1.006,0.0,0,100.0,3
160629,214265,--,0.100,-0.024,-1.006,0.0,0,100.0,3
160594,214265,--,0.100,-0.024,-1.007,0.0,0,100.0,3
160555,214220,--,0.100,-0.024,-1.007,0.0,0,100.0,3
160527,214209,--,0.100,-0.024,-1.007,0.0,0,100.0,3
160511,214200,--,0.099,-0.022,-1.007,0.0,0,100.0,3
160501,214198,--,0.099,-0.022,-1.007,0.0,0,100.0,3
160501,214193,--,0.099,-0.022,-1.007,0.0,0,100.0,3
160513,214204,--,0.099,-0.021,-1.007,0.0,0,100.0,3
160519,214209,--,0.099,-0.021,-1.007,0.0,0,100.0,3
160530,214205,--,0.100,-0.022,-1.006,0.0,0,100.0,3
160534,214216,--,0.100,-0.022,-1.006,0.0,0,100.0,3
160551,214209,--,0.100,-0.021,-1.006,0.0,0,100.0,3
160564,214210,--,0.099,-0.021,-1.007,0.0,0,100.0,3
160580,214220,--,0.099,-0.022,-1.007,0.0,0,100.0,3
160566,214217,--,0.099,-0.022,-1.007,0.0,0,100.0,3
160567,214200,--,0.099,-0.022,-1.007,0.0,0,100.0,3
160552,214206,--,0.099,-0.023,-1.007,0.0,0,100.0,3
160555,214200,--,0.099,-0.023,-1.007,0.0,0,100.0,3
160551,214204,--,0.099,-0.023,-1.007,0.0,0,100.0,3
160553,214202,--,0.099,-0.022,-1.007,0.0,0,100.0,3
160566,214202,--,0.099,-0.022,-1.007,69.2,96,100.0,3
160574,214195,--,0.099,-0.022,-1.007,69.2,96,100.0,3
160582,214203,--,0.099,-0.022,-1.007,69.2,96,100.0,3
160599,214206,--,0.099,-0.022,-1.007,69.2,96,100.0,3
160600,214212,--,0.099,-0.022,-1.007,69.2,96,100.0,3
160616,214218,--,0.099,-0.023,-1.008,69.2,96,100.0,3
160634,214223,--,0.100,-0.022,-1.007,69.2,96,100.0,3
160632,214218,--,0.100,-0.021,-1.007,69.2,96,100.0,3
160630,214222,--,0.100,-0.021,-1.007,69.2,96,100.0,3
160631,214233,--,0.099,-0.021,-1.007,69.2,96,100.0,3
160635,214230,--,0.099,-0.021,-1.007,69.2,96,100.0,3
160644,214230,--,0.098,-0.021,-1.006,69.2,96,100.0,3
160639,214217,--,0.098,-0.021,-1.006,69.2,96,100.0,3
160645,214239,--,0.098,-0.021,-1.006,69.2,96,100.0,3
160642,214227,--,0.099,-0.021,-1.006,69.2,96,100.0,3
160642,214222,--,0.099,-0.021,-1.006,69.2,96,100.0,3
160651,214218,--,0.099,-0.021,-1.006,69.2,96,100.0,3
160649,214217,--,0.099,-0.022,-1.006,69.2,96,100.0,3
160636,214225,--,0.099,-0.022,-1.006,69.2,96,100.0,3
160648,214230,--,0.099,-0.022,-1.006,69.2,96,100.0,3
160656,214229,--,0.099,-0.022,-1.006,69.2,96,100.0,3
160655,214236,--,0.099,-0.022,-1.007,69.2,96,100.0,3
160656,214226,--,0.099,-0.022,-1.007,69.2,96,100.0,3
160652,214217,--,0.099,-0.022,-1.007,69.2,96,100.0,3
160660,214230,--,0.099,-0.021,-1.007,69.2,96,100.0,3
160665,214216,--,0.098,-0.021,-1.007,69.2,96,100.0,3
160663,214222,--,0.098,-0.021,-1.006,69.2,96,100.0,3
160675,214221,--,0.099,-0.022,-1.006,69.2,96,100.0,3
160672,214227,--,0.099,-0.022,-1.006,69.2,96,100.0,3
160656,214221,--,0.099,-0.022,-1.007,69.2,96,100.0,3
160653,214220,--,0.099,-0.022,-1.007,69.2,96,100.0,3
160670,214214,--,0.099,-0.022,-1.007,69.2,96,100.0,3
160672,214220,--,0.098,-0.023,-1.007,69.2,96,100.0,3
160677,214227,--,0.098,-0.023,-1.007,69.2,96,100.0,3
160677,214238,--,0.098,-0.023,-1.007,69.2,96,100.0,3
160675,214236,--,0.098,-0.023,-1.007,69.2,96,100.0,3
160679,214233,--,0.098,-0.023,-1.007,69.2,96,100.0,3
160675,214232,--,0.098,-0.023,-1.007,69.2,96,100.0,3
160677,214223,--,0.098,-0.023,-1.007,69.2,96,100.0,3
160682,214226,--,0.098,-0.023,-1.007,69.2,96,100.0,3
160672,214237,--,0.099,-0.022,-1.007,69.2,96,100.0,3
160686,214230,--,0.098,-0.022,-1.007,69.2,96,100.0,3
160690,214236,--,0.098,-0.022,-1.007,69.2,96,100.0,3
160691,214235,--,0.098,-0.023,-1.007,69.2,96,100.0,3
160695,214232,--,0.097,-0.023,-1.008,69.2,96,100.0,3
160585,214236,--,0.097,-0.023,-1.008,69.2,96,100.0,3
160693,214239,--,0.097,-0.023,-1.008,69.2,96,100.0,3
160698,214229,--,0.097,-0.023,-1.008,69.3,96,100.0,3
160693,214236,--,0.097,-0.023,-1.008,69.3,96,100.0,3
160698,214230,--,0.097,-0.023,-1.008,69.3,96,100.0,3
160690,214230,--,0.096,-0.023,-1.008,69.3,96,100.0,3
160687,214226,--,0.096,-0.023,-1.008,69.3,96,100.0,3
160678,214233,--,0.096,-0.023,-1.008,69.3,96,100.0,3
160639,214214,--,0.096,-0.022,-1.008,69.3,96,100.0,3
160607,214203,--,0.096,-0.022,-1.008,69.3,96,100.0,3
160560,214169,--,0.096,-0.022,-1.008,69.3,96,100.0,3
160515,214159,--,0.096,-0.023,-1.008,69.3,96,100.0,3
160476,214140,--,0.096,-0.023,-1.008,69.3,96,100.0,3
160449,214135,--,0.096,-0.023,-1.008,69.3,96,100.0,3
160440,214124,--,0.097,-0.024,-1.007,69.3,96,100.0,3
160433,214112,--,0.096,-0.024,-1.007,69.3,96,100.0,3
160434,214121,--,0.096,-0.024,-1.007,69.3,96,100.0,3
160428,214133,--,0.096,-0.024,-1.007,69.3,96,100.0,3
160438,214125,--,0.095,-0.024,-1.008,69.3,96,100.0,3
160442,214126,--,0.095,-0.024,-1.008,69.3,96,100.0,3
160444,214138,--,0.095,-0.024,-1.008,69.3,96,100.0,3
160442,214142,--,0.095,-0.024,-1.008,69.3,96,100.0,3
