Auto Gain Control OFF,IR PA (mA)=10,Red PA (mA)=10,Sample Rate (Hz)=1600,Pulse Width (usec)=400,FIFO Almost Full=17,FIFO Rolls on Full=Checked,Sample Averaging=2
IR Count, Red Count, Green Count, X Axis Acceleration, Y Axis Acceleration, Z Axis Acceleration, Heart Rate, HR Confidence, SPO2, Algorithm Status
262143,212694,--,0.000,0.000,0.000,0.0,0,0.0,1
262143,212668,--,0.000,0.000,0.000,0.0,0,0.0,1
262143,212667,--,0.000,0.000,0.000,0.0,0,0.0,1
262143,212635,--,0.000,0.000,0.000,0.0,0,0.0,1
262143,212629,--,0.000,0.000,0.000,0.0,0,0.0,1
262143,212623,--,0.000,0.000,0.000,0.0,0,0.0,1
262143,212611,--,0.000,0.000,0.000,0.0,0,0.0,1
262143,212602,--,0.000,0.000,0.000,0.0,0,0.0,1
262143,212581,--,0.000,0.000,0.000,0.0,0,0.0,1
262143,212581,--,0.000,0.000,0.000,0.0,0,0.0,1
131071,106289,--,0.000,0.000,0.000,0.0,0,0.0,1
262143,212547,--,0.000,0.000,0.000,0.0,0,0.0,1
262143,212541,--,0.000,0.000,0.000,0.0,0,0.0,1
262143,212529,--,0.000,0.000,0.000,0.0,0,0.0,1
262143,212516,--,0.000,0.000,0.000,0.0,0,0.0,1
262143,212499,--,0.000,0.000,0.000,0.0,0,0.0,1
262143,212498,--,0.000,0.000,0.000,0.0,0,0.0,1
262143,212484,--,0.000,0.000,0.000,0.0,0,0.0,1
262143,212479,--,0.000,0.000,0.000,0.0,0,0.0,1
262143,212468,--,0.000,0.000,0.000,0.0,0,0.0,1
262143,212462,--,0.000,0.000,0.000,0.0,0,0.0,1
210412,212453,--,0.000,0.000,0.000,0.0,0,0.0,1
191904,212456,--,0.000,0.000,0.000,0.0,0,0.0,1
191918,212443,--,0.000,0.000,0.000,0.0,0,0.0,1
191936,212445,--,0.000,0.000,0.000,0.0,0,0.0,1
191939,212446,--,0.000,0.000,0.000,0.0,0,0.0,1
191959,212446,--,0.000,0.000,0.000,0.0,0,0.0,1
191959,212440,--,0.000,0.000,0.000,0.0,0,0.0,1
191970,212445,--,0.000,0.000,0.000,0.0,0,0.0,1
191966,212438,--,0.000,0.000,0.000,0.0,0,0.0,1
191982,212439,--,0.000,0.000,0.000,0.0,0,0.0,1
191981,212439,--,0.000,0.000,0.000,0.0,0,0.0,1
191989,212435,--,0.000,0.000,0.000,0.0,0,0.0,1
191988,212438,--,0.000,0.000,0.000,0.0,0,0.0,1
191990,212432,--,0.000,0.000,0.000,0.0,0,0.0,1
105222,212408,--,0.000,0.000,0.000,0.0,0,0.0,1
105239,212422,--,0.000,0.000,0.000,0.0,0,0.0,1
105244,212417,--,0.000,0.000,0.000,0.0,0,0.0,1
105248,212420,--,0.000,0.000,0.000,0.0,0,0.0,1
105250,212422,--,0.000,0.000,0.000,0.0,0,0.0,1
105252,212429,--,0.000,0.000,0.000,0.0,0,0.0,1
105249,212429,--,0.000,0.000,0.000,0.0,0,0.0,1
105257,212431,--,0.000,0.000,0.000,0.0,0,0.0,1
105256,212440,--,0.000,0.000,0.000,0.0,0,0.0,1
105252,212433,--,0.000,0.000,0.000,0.0,0,0.0,1
105200,212404,--,0.000,0.000,0.000,0.0,0,0.0,1
105189,212388,--,0.000,0.000,0.000,0.0,0,0.0,1
105181,212377,--,0.000,0.000,0.000,0.0,0,0.0,1
105175,212358,--,0.000,0.000,0.000,0.0,0,0.0,1
105167,212359,--,0.000,0.000,0.000,0.0,0,0.0,1
105151,212344,--,0.000,0.000,0.000,0.0,0,0.0,1
105148,212348,--,0.000,0.000,0.000,0.0,0,0.0,1
105143,212336,--,0.000,0.000,0.000,0.0,0,0.0,1
105140,212325,--,0.000,0.000,0.000,0.0,0,0.0,1
105121,212318,--,0.000,0.000,0.000,0.0,0,0.0,1
105126,212309,--,0.000,0.000,0.000,0.0,0,0.0,1
105115,212290,--,0.000,0.000,0.000,0.0,0,0.0,1
105113,212287,--,0.000,0.000,0.000,0.0,0,0.0,1
105096,212265,--,0.000,0.000,0.000,0.0,0,0.0,1
105100,212258,--,0.000,0.000,0.000,0.0,0,0.0,1
114092,212250,--,0.000,0.000,0.000,0.0,0,0.0,1
147679,212258,--,0.000,0.000,0.000,0.0,0,0.0,1
173886,212255,--,0.000,0.000,0.000,0.0,0,0.0,1
175494,212250,--,0.000,0.000,0.000,0.0,0,0.0,1
175488,212236,--,0.000,0.000,0.000,0.0,0,0.0,1
175483,212240,--,0.000,0.000,0.000,0.0,0,0.0,1
175480,212237,--,0.000,0.000,0.000,0.0,0,0.0,1
175481,212235,--,0.000,0.000,0.000,0.0,0,0.0,1
175481,212222,--,0.000,0.000,0.000,0.0,0,0.0,1
175488,212229,--,0.000,0.000,0.000,0.0,0,0.0,1
175508,212225,--,0.000,0.000,0.000,0.0,0,0.0,1
175506,212216,--,0.000,0.000,0.000,0.0,0,0.0,1
175513,212227,--,0.000,0.000,0.000,0.0,0,0.0,1
175518,212227,--,0.000,0.000,0.000,0.0,0,0.0,1
175514,212220,--,0.000,0.000,0.000,0.0,0,0.0,1
193153,212223,--,0.000,0.000,0.000,0.0,0,0.0,1
197294,212222,--,0.000,0.000,0.000,0.0,0,0.0,1
197279,212219,--,0.000,0.000,0.000,0.0,0,0.0,1
197283,212213,--,0.000,0.000,0.000,0.0,0,0.0,1
197283,212215,--,0.000,0.000,0.000,0.0,0,0.0,1
197287,212216,--,0.000,0.000,0.000,0.0,0,0.0,1
197289,212215,--,0.000,0.000,0.000,0.0,0,0.0,1
197289,212211,--,0.000,0.000,0.000,0.0,0,0.0,1
197297,212206,--,0.000,0.000,0.000,0.0,0,0.0,1
197305,212198,--,0.000,0.000,0.000,0.0,0,0.0,1
197298,212198,--,0.000,0.000,0.000,0.0,0,0.0,1
197298,212185,--,0.000,0.000,0.000,0.0,0,0.0,1
197308,212197,--,0.000,0.000,0.000,0.0,0,0.0,1
197292,212191,--,0.000,0.000,0.000,0.0,0,0.0,1
197298,212188,--,0.000,0.000,0.000,0.0,0,0.0,1
197301,212182,--,0.000,0.000,0.000,0.0,0,0.0,1
197311,212189,--,0.000,0.000,0.000,0.0,0,0.0,1
197302,212176,--,0.000,0.000,0.000,0.0,0,0.0,1
197302,212174,--,0.000,0.000,0.000,0.0,0,0.0,1
197307,212178,--,0.000,0.000,0.000,0.0,0,0.0,1
197309,212179,--,0.000,0.000,0.000,0.0,0,0.0,1
197313,212173,--,0.000,0.000,0.000,0.0,0,0.0,1
197315,212172,--,0.000,0.000,0.000,0.0,0,0.0,1
197329,212174,--,0.000,0.000,0.000,0.0,0,0.0,1
197327,212172,--,0.000,0.000,0.000,0.0,0,0.0,1
197327,212179,--,0.000,0.000,0.000,0.0,0,0.0,1
197330,212172,--,0.000,0.000,0.000,0.0,0,0.0,1
197334,212178,--,0.000,0.000,0.000,0.0,0,0.0,1
197335,212178,--,0.000,0.000,0.000,0.0,0,0.0,1
197336,212181,--,0.000,0.000,0.000,0.0,0,0.0,1
197340,212177,--,0.000,0.000,0.000,0.0,0,0.0,1
197346,212169,--,0.000,0.000,0.000,0.0,0,0.0,1
197336,212169,--,0.000,0.000,0.000,0.0,0,0.0,1
197344,212167,--,0.000,0.000,0.000,0.0,0,0.0,1
197353,212166,--,0.000,0.000,0.000,0.0,0,0.0,1
197357,212166,--,0.000,0.000,0.000,0.0,0,0.0,1
197363,212166,--,0.000,0.000,0.000,0.0,0,0.0,1
197362,212173,--,0.000,0.000,0.000,0.0,0,0.0,1
197367,212164,--,0.000,0.000,0.000,0.0,0,0.0,1
197372,212169,--,0.000,0.000,0.000,0.0,0,0.0,1
197384,212170,--,0.000,0.000,0.000,0.0,0,0.0,1
197387,212178,--,0.000,0.000,0.000,0.0,0,0.0,1
197391,212180,--,0.000,0.000,0.000,0.0,0,0.0,1
197402,212189,--,0.000,0.000,0.000,0.0,0,0.0,1
197408,212176,--,0.000,0.000,0.000,0.0,0,0.0,1
197422,212191,--,0.000,0.000,0.000,0.0,0,0.0,1
197424,212193,--,0.000,0.000,0.000,0.0,0,0.0,1
197435,212196,--,0.000,0.000,0.000,0.0,0,0.0,1
197438,212195,--,0.000,0.000,0.000,0.0,0,0.0,1
197434,212202,--,0.000,0.000,0.000,0.0,0,0.0,1
197443,212205,--,0.000,0.000,0.000,0.0,0,0.0,1
197445,212214,--,0.000,0.000,0.000,0.0,0,0.0,1
197457,212215,--,0.000,0.000,0.000,0.0,0,0.0,1
197454,212210,--,0.000,0.000,0.000,0.0,0,0.0,1
197463,212213,--,0.000,0.000,0.000,0.0,0,0.0,1
197463,212215,--,0.000,0.000,0.000,0.0,0,0.0,1
197465,212215,--,0.000,0.000,0.000,0.0,0,0.0,1
197463,212210,--,0.000,0.000,0.000,0.0,0,0.0,1
197471,212210,--,0.000,0.000,0.000,0.0,0,0.0,1
197460,212204,--,0.000,0.000,0.000,0.0,0,0.0,1
197474,212203,--,0.000,0.000,0.000,0.0,0,0.0,1
197474,212207,--,0.000,0.000,0.000,0.0,0,0.0,1
197467,212203,--,0.000,0.000,0.000,0.0,0,0.0,1
197482,212211,--,0.000,0.000,0.000,0.0,0,0.0,1
197474,212206,--,0.000,0.000,0.000,0.0,0,0.0,1
197476,212201,--,0.000,0.000,0.000,0.0,0,0.0,1
197475,212208,--,0.000,0.000,0.000,0.0,0,0.0,1
197475,212196,--,0.000,0.000,0.000,0.0,0,0.0,1
197477,212203,--,0.000,0.000,0.000,0.0,0,0.0,1
197480,212199,--,0.000,0.000,0.000,0.0,0,0.0,1
197480,212191,--,0.000,0.000,0.000,0.0,0,0.0,1
197481,212191,--,0.000,0.000,0.000,0.0,0,0.0,1
197470,212192,--,0.000,0.000,0.000,0.0,0,0.0,1
197475,212196,--,0.000,0.000,0.000,0.0,0,0.0,1
197474,212190,--,0.000,0.000,0.000,0.0,0,0.0,1
197480,212187,--,0.000,0.000,0.000,0.0,0,0.0,1
197469,212180,--,0.000,0.000,0.000,0.0,0,0.0,1
197474,212185,--,0.000,0.000,0.000,0.0,0,0.0,1
197475,212169,--,0.000,0.000,0.000,0.0,0,0.0,1
197477,212173,--,0.000,0.000,0.000,0.0,0,0.0,1
197481,212175,--,0.000,0.000,0.000,0.0,0,0.0,1
197481,212182,--,0.000,0.000,0.000,0.0,0,0.0,1
197480,212179,--,0.000,0.000,0.000,0.0,0,0.0,1
197479,212168,--,0.000,0.000,0.000,0.0,0,0.0,1
197491,212177,--,0.000,0.000,0.000,0.0,0,0.0,1
197501,212185,--,0.000,0.000,0.000,0.0,0,0.0,1
197504,212186,--,0.000,0.000,0.000,0.0,0,0.0,1
197503,212184,--,0.000,0.000,0.000,0.0,0,0.0,1
197507,212179,--,0.000,0.000,0.000,0.0,0,0.0,1
197507,212185,--,0.000,0.000,0.000,0.0,0,0.0,1
197515,212189,--,0.000,0.000,0.000,0.0,0,0.0,1
197511,212184,--,0.000,0.000,0.000,0.0,0,0.0,1
197522,212188,--,0.000,0.000,0.000,0.0,0,0.0,1
197523,212182,--,0.000,0.000,0.000,0.0,0,0.0,1
197523,212177,--,0.000,0.000,0.000,0.0,0,0.0,1
197532,212180,--,0.000,0.000,0.000,0.0,0,0.0,1
197523,212191,--,0.000,0.000,0.000,0.0,0,0.0,1
197534,212188,--,0.000,0.000,0.000,0.0,0,0.0,1
197531,212182,--,0.000,0.000,0.000,0.0,0,0.0,1
197536,212188,--,0.000,0.000,0.000,0.0,0,0.0,1
197541,212188,--,0.000,0.000,0.000,0.0,0,0.0,1
197548,212187,--,0.000,0.000,0.000,0.0,0,0.0,1
197540,212185,--,0.000,0.000,0.000,0.0,0,0.0,1
197542,212182,--,0.000,0.000,0.000,0.0,0,0.0,1
197546,212186,--,0.000,0.000,0.000,0.0,0,0.0,1
197544,212186,--,0.000,0.000,0.000,0.0,0,0.0,1
197534,212181,--,0.000,0.000,0.000,0.0,0,0.0,1
197539,212177,--,0.000,0.000,0.000,0.0,0,0.0,1
197539,212177,--,0.000,0.000,0.000,0.0,0,0.0,1
197537,212172,--,0.000,0.000,0.000,0.0,0,0.0,1
197519,212173,--,0.000,0.000,0.000,0.0,0,0.0,1
197506,212165,--,0.000,0.000,0.000,0.0,0,0.0,1
197499,212166,--,0.000,0.000,0.000,0.0,0,0.0,1
197481,212152,--,0.000,0.000,0.000,0.0,0,0.0,1
197454,212143,--,0.000,0.000,0.000,0.0,0,0.0,1
197439,212140,--,0.000,0.000,0.000,0.0,0,0.0,1
197421,212135,--,0.000,0.000,0.000,0.0,0,0.0,1
197408,212127,--,0.000,0.000,0.000,0.0,0,0.0,1
197388,212111,--,0.000,0.000,0.000,0.0,0,0.0,1
197378,212108,--,0.000,0.000,0.000,0.0,0,0.0,1
197370,212093,--,0.000,0.000,0.000,0.0,0,0.0,1
197357,212088,--,0.000,0.000,0.000,0.0,0,0.0,1
197353,212093,--,0.000,0.000,0.000,0.0,0,0.0,1
197344,212094,--,0.000,0.000,0.000,0.0,0,0.0,1
197349,212089,--,0.000,0.000,0.000,0.0,0,0.0,1
197344,212092,--,0.000,0.000,0.000,0.0,0,0.0,1
197345,212091,--,0.000,0.000,0.000,0.0,0,0.0,1
197341,212094,--,0.000,0.000,0.000,0.0,0,0.0,1
197342,212091,--,0.000,0.000,0.000,0.0,0,0.0,1
197341,212089,--,0.000,0.000,0.000,0.0,0,0.0,1
197347,212092,--,0.000,0.000,0.000,0.0,0,0.0,1
197347,212080,--,0.000,0.000,0.000,0.0,0,0.0,1
197346,212089,--,0.000,0.000,0.000,0.0,0,0.0,1
197361,212093,--,0.000,0.000,0.000,0.0,0,0.0,1
197363,212105,--,0.000,0.000,0.000,0.0,0,0.0,1
197370,212106,--,0.000,0.000,0.000,0.0,0,0.0,1
197371,212102,--,0.000,0.000,0.000,0.0,0,0.0,1
197385,212110,--,0.000,0.000,0.000,0.0,0,0.0,1
197384,212116,--,0.000,0.000,0.000,0.0,0,0.0,1
197392,212116,--,0.000,0.000,0.000,0.0,0,0.0,1
197401,212117,--,0.000,0.000,0.000,0.0,0,0.0,1
197396,212119,--,0.000,0.000,0.000,0.0,0,0.0,1
197402,212114,--,0.000,0.000,0.000,0.0,0,0.0,1
197407,212118,--,0.000,0.000,0.000,0.0,0,0.0,1
197412,212124,--,0.000,0.000,0.000,0.0,0,0.0,1
197413,212121,--,0.000,0.000,0.000,0.0,0,0.0,1
197416,212113,--,0.000,0.000,0.000,0.0,0,0.0,1
197417,212127,--,0.000,0.000,0.000,0.0,0,0.0,1
197419,212128,--,0.000,0.000,0.000,0.0,0,0.0,1
197425,212130,--,0.000,0.000,0.000,0.0,0,0.0,1
197426,212127,--,0.000,0.000,0.000,0.0,0,0.0,1
197423,212124,--,0.000,0.000,0.000,0.0,0,0.0,1
197433,212131,--,0.000,0.000,0.000,0.0,0,0.0,1
197443,212140,--,0.000,0.000,0.000,0.0,0,0.0,1
197444,212142,--,0.000,0.000,0.000,0.0,0,0.0,1
197462,212148,--,0.000,0.000,0.000,0.0,0,0.0,1
197459,212168,--,0.000,0.000,0.000,0.0,0,0.0,1
197471,212165,--,0.000,0.000,0.000,0.0,0,0.0,1
197471,212164,--,0.000,0.000,0.000,0.0,0,0.0,1
197472,212164,--,0.000,0.000,0.000,0.0,0,0.0,1
197471,212156,--,0.000,0.000,0.000,0.0,0,0.0,1
197475,212165,--,0.000,0.000,0.000,0.0,0,0.0,1
197477,212167,--,0.000,0.000,0.000,0.0,0,0.0,1
197483,212171,--,0.000,0.000,0.000,0.0,0,0.0,1
197478,212170,--,0.000,0.000,0.000,0.0,0,0.0,1
197478,212169,--,0.000,0.000,0.000,0.0,0,0.0,1
197479,212172,--,0.000,0.000,0.000,0.0,0,0.0,1
197474,212167,--,0.000,0.000,0.000,0.0,0,0.0,1
197478,212168,--,0.000,0.000,0.000,0.0,0,0.0,1
197473,212159,--,0.000,0.000,0.000,0.0,0,0.0,1
197467,212165,--,0.000,0.000,0.000,0.0,0,0.0,1
197467,212163,--,0.000,0.000,0.000,0.0,0,0.0,1
197454,212162,--,0.000,0.000,0.000,0.0,0,0.0,1
197460,212167,--,0.000,0.000,0.000,0.0,0,0.0,1
197458,212164,--,0.000,0.000,0.000,0.0,0,0.0,1
197464,212171,--,0.000,0.000,0.000,0.0,0,0.0,1
197464,212164,--,0.000,0.000,0.000,0.0,0,0.0,1
197463,212170,--,0.000,0.000,0.000,0.0,0,0.0,1
197470,212166,--,0.000,0.000,0.000,0.0,0,0.0,1
197472,212170,--,0.000,0.000,0.000,0.0,0,0.0,1
197475,212168,--,0.000,0.000,0.000,0.0,0,0.0,1
197477,212173,--,0.000,0.000,0.000,0.0,0,0.0,1
197468,212177,--,0.000,0.000,0.000,0.0,0,0.0,1
197478,212175,--,0.000,0.000,0.000,0.0,0,0.0,1
197477,212176,--,0.000,0.000,0.000,0.0,0,0.0,1
197484,212185,--,0.000,0.000,0.000,0.0,0,0.0,1
197477,212178,--,0.000,0.000,0.000,0.0,0,0.0,1
197486,212184,--,0.000,0.000,0.000,0.0,0,0.0,1
197487,212179,--,0.000,0.000,0.000,0.0,0,0.0,1
197487,212187,--,0.000,0.000,0.000,0.0,0,0.0,1
197486,212180,--,0.000,0.000,0.000,0.0,0,0.0,1
197490,212181,--,0.000,0.000,0.000,0.0,0,0.0,1
197494,212189,--,0.000,0.000,0.000,0.0,0,0.0,1
197490,212187,--,0.000,0.000,0.000,0.0,0,0.0,1
197502,212186,--,0.000,0.000,0.000,0.0,0,0.0,1
197510,212187,--,0.000,0.000,0.000,0.0,0,0.0,1
197498,212185,--,0.000,0.000,0.000,0.0,0,0.0,1
197511,212188,--,0.000,0.000,0.000,0.0,0,0.0,1
197516,212191,--,0.000,0.000,0.000,0.0,0,0.0,1
197529,212189,--,0.000,0.000,0.000,0.0,0,0.0,1
197526,212202,--,0.000,0.000,0.000,0.0,0,0.0,1
197527,212202,--,0.000,0.000,0.000,0.0,0,0.0,1
197545,212197,--,0.000,0.000,0.000,0.0,0,0.0,1
197543,212206,--,0.000,0.000,0.000,0.0,0,0.0,1
197548,212210,--,0.000,0.000,0.000,0.0,0,0.0,1
197551,212209,--,0.000,0.000,0.000,0.0,0,0.0,1
197544,212211,--,0.000,0.000,0.000,0.0,0,0.0,1
197559,212216,--,0.000,0.000,0.000,0.0,0,0.0,1
197554,212211,--,0.000,0.000,0.000,0.0,0,0.0,1
197544,212211,--,0.000,0.000,0.000,0.0,0,0.0,1
197550,212204,--,0.000,0.000,0.000,0.0,0,0.0,1
197562,212212,--,0.000,0.000,0.000,0.0,0,0.0,1
197552,212206,--,0.000,0.000,0.000,0.0,0,0.0,1
197558,212210,--,0.000,0.000,0.000,0.0,0,0.0,1
197562,212208,--,0.000,0.000,0.000,0.0,0,0.0,1
197566,212211,--,0.000,0.000,0.000,0.0,0,0.0,1
197562,212211,--,0.000,0.000,0.000,0.0,0,0.0,1
197563,212207,--,0.000,0.000,0.000,0.0,0,0.0,1
197556,212205,--,0.000,0.000,0.000,0.0,0,0.0,1
197565,212210,--,0.000,0.000,0.000,0.0,0,0.0,1
197563,212205,--,0.000,0.000,0.000,0.0,0,0.0,1
197562,212204,--,0.000,0.000,0.000,0.0,0,0.0,1
197564,212202,--,0.000,0.000,0.000,0.0,0,0.0,1
197565,212215,--,0.000,0.000,0.000,0.0,0,0.0,1
197561,212208,--,0.000,0.000,0.000,0.0,0,0.0,1
197564,212194,--,0.000,0.000,0.000,0.0,0,0.0,1
197554,212201,--,0.000,0.000,0.000,0.0,0,0.0,1
197563,212197,--,0.000,0.000,0.000,0.0,0,0.0,1
197558,212193,--,0.000,0.000,0.000,0.0,0,0.0,1
197566,212192,--,0.000,0.000,0.000,0.0,0,0.0,1
197564,212192,--,0.000,0.000,0.000,0.0,0,0.0,1
197567,212191,--,0.000,0.000,0.000,0.0,0,0.0,1
197557,212184,--,0.000,0.000,0.000,0.0,0,0.0,1
197560,212189,--,0.000,0.000,0.000,0.0,0,0.0,1
197563,212191,--,0.000,0.000,0.000,0.0,0,0.0,1
197569,212197,--,0.000,0.000,0.000,0.0,0,0.0,1
197569,212197,--,0.000,0.000,0.000,0.0,0,0.0,1
197572,212202,--,0.000,0.000,0.000,0.0,0,0.0,1
197566,212195,--,0.000,0.000,0.000,0.0,0,0.0,1
197581,212193,--,0.000,0.000,0.000,0.0,0,0.0,1
197581,212194,--,0.000,0.000,0.000,0.0,0,0.0,1
197583,212204,--,0.000,0.000,0.000,0.0,0,0.0,1
197581,212199,--,0.000,0.000,0.000,0.0,0,0.0,1
197586,212207,--,0.000,0.000,0.000,0.0,0,0.0,1
197592,212212,--,0.000,0.000,0.000,0.0,0,0.0,1
197597,212213,--,0.000,0.000,0.000,0.0,0,0.0,1
197597,212208,--,0.000,0.000,0.000,0.0,0,0.0,1
197596,212209,--,0.000,0.000,0.000,0.0,0,0.0,1
197596,212207,--,0.000,0.000,0.000,0.0,0,0.0,1
197607,212207,--,0.000,0.000,0.000,0.0,0,0.0,1
197611,212215,--,0.000,0.000,0.000,0.0,0,0.0,1
197616,212220,--,0.000,0.000,0.000,0.0,0,0.0,1
197616,212220,--,0.000,0.000,0.000,0.0,0,0.0,1
197619,212218,--,0.000,0.000,0.000,0.0,0,0.0,1
197622,212221,--,0.000,0.000,0.000,0.0,0,0.0,1
197625,212225,--,0.000,0.000,0.000,0.0,0,0.0,1
197627,212221,--,0.000,0.000,0.000,0.0,0,0.0,1
197627,212217,--,0.000,0.000,0.000,0.0,0,0.0,1
197622,212212,--,0.000,0.000,0.000,0.0,0,0.0,1
197621,212215,--,0.000,0.000,0.000,0.0,0,0.0,1
197619,212211,--,0.000,0.000,0.000,0.0,0,0.0,1
197624,212211,--,0.000,0.000,0.000,0.0,0,0.0,1
197625,212209,--,0.000,0.000,0.000,0.0,0,0.0,1
197623,212216,--,0.000,0.000,0.000,0.0,0,0.0,1
197622,212214,--,0.000,0.000,0.000,0.0,0,0.0,1
197628,212219,--,0.000,0.000,0.000,0.0,0,0.0,1
197617,212210,--,0.000,0.000,0.000,0.0,0,0.0,1
197612,212214,--,0.000,0.000,0.000,0.0,0,0.0,1
197596,212209,--,0.000,0.000,0.000,0.0,0,0.0,1
197586,212199,--,0.000,0.000,0.000,0.0,0,0.0,1
197566,212196,--,0.000,0.000,0.000,0.0,0,0.0,1
197551,212186,--,0.000,0.000,0.000,0.0,0,0.0,1
197533,212178,--,0.000,0.000,0.000,0.0,0,0.0,1
197521,212176,--,0.000,0.000,0.000,0.0,0,0.0,1
197507,212168,--,0.000,0.000,0.000,0.0,0,0.0,1
197495,212166,--,0.000,0.000,0.000,0.0,0,0.0,1
197469,212158,--,0.000,0.000,0.000,0.0,0,0.0,1
197471,212152,--,0.000,0.000,0.000,0.0,0,0.0,1
197455,212154,--,0.000,0.000,0.000,0.0,0,0.0,1
197459,212152,--,0.000,0.000,0.000,0.0,0,0.0,1
197446,212145,--,0.000,0.000,0.000,0.0,0,0.0,1
197447,212152,--,0.000,0.000,0.000,0.0,0,0.0,1
197450,212147,--,0.000,0.000,0.000,0.0,0,0.0,1
197439,212152,--,0.000,0.000,0.000,0.0,0,0.0,1
197445,212148,--,0.000,0.000,0.000,0.0,0,0.0,1
197445,212150,--,0.000,0.000,0.000,0.0,0,0.0,1
197452,212150,--,0.000,0.000,0.000,0.0,0,0.0,1
197457,212164,--,0.000,0.000,0.000,0.0,0,0.0,1
197464,212154,--,0.000,0.000,0.000,0.0,0,0.0,1
197470,212163,--,0.000,0.000,0.000,0.0,0,0.0,1
197469,212172,--,0.000,0.000,0.000,0.0,0,0.0,1
197484,212175,--,0.000,0.000,0.000,0.0,0,0.0,1
197494,212181,--,0.000,0.000,0.000,0.0,0,0.0,1
197497,212185,--,0.000,0.000,0.000,0.0,0,0.0,1
197502,212188,--,0.000,0.000,0.000,0.0,0,0.0,1
197505,212191,--,0.000,0.000,0.000,0.0,0,0.0,1
197513,212188,--,0.000,0.000,0.000,0.0,0,0.0,1
197512,212196,--,0.000,0.000,0.000,0.0,0,0.0,1
197522,212195,--,0.000,0.000,0.000,0.0,0,0.0,1
197528,212210,--,0.000,0.000,0.000,0.0,0,0.0,1
197528,212202,--,0.000,0.000,0.000,0.0,0,0.0,1
197535,212207,--,0.000,0.000,0.000,0.0,0,0.0,1
197535,212200,--,0.000,0.000,0.000,0.0,0,0.0,1
197539,212201,--,0.000,0.000,0.000,0.0,0,0.0,1
197542,212202,--,0.000,0.000,0.000,0.0,0,0.0,1
197539,212212,--,0.000,0.000,0.000,0.0,0,0.0,1
197540,212203,--,0.000,0.000,0.000,0.0,0,0.0,1
197548,212208,--,0.000,0.000,0.000,0.0,0,0.0,1
197554,212200,--,0.000,0.000,0.000,0.0,0,0.0,1
197557,212208,--,0.000,0.000,0.000,0.0,0,0.0,1
197555,212209,--,0.000,0.000,0.000,0.0,0,0.0,1
197558,212213,--,0.000,0.000,0.000,0.0,0,0.0,1
197557,212210,--,0.000,0.000,0.000,0.0,0,0.0,1
197570,212216,--,0.000,0.000,0.000,0.0,0,0.0,1
197570,212215,--,0.000,0.000,0.000,0.0,0,0.0,1
197577,212218,--,0.000,0.000,0.000,0.0,0,0.0,1
197582,212225,--,0.000,0.000,0.000,0.0,0,0.0,1
197587,212235,--,0.000,0.000,0.000,0.0,0,0.0,1
197586,212232,--,0.000,0.000,0.000,0.0,0,0.0,1
197590,212226,--,0.000,0.000,0.000,0.0,0,0.0,1
197591,212228,--,0.000,0.000,0.000,0.0,0,0.0,1
197598,212231,--,0.000,0.000,0.000,0.0,0,0.0,1
197606,212232,--,0.000,0.000,0.000,0.0,0,0.0,1
197604,212243,--,0.000,0.000,0.000,0.0,0,0.0,1
197595,212238,--,0.000,0.000,0.000,0.0,0,0.0,1
197603,212239,--,0.000,0.000,0.000,0.0,0,0.0,1
197611,212250,--,0.000,0.000,0.000,0.0,0,0.0,1
197624,212256,--,0.000,0.000,0.000,0.0,0,0.0,1
197637,212259,--,0.000,0.000,0.000,0.0,0,0.0,1
197634,212264,--,0.000,0.000,0.000,0.0,0,0.0,1
197635,212268,--,0.000,0.000,0.000,0.0,0,0.0,1
197639,212276,--,0.000,0.000,0.000,0.0,0,0.0,1
197649,212273,--,0.000,0.000,0.000,0.0,0,0.0,1
197642,212272,--,0.000,0.000,0.000,0.0,0,0.0,1
197639,212273,--,0.000,0.000,0.000,0.0,0,0.0,1
197639,212272,--,0.000,0.000,0.000,0.0,0,0.0,1
197642,212268,--,0.000,0.000,0.000,0.0,0,0.0,1
197638,212275,--,0.000,0.000,0.000,0.0,0,0.0,1
197640,212267,--,0.000,0.000,0.000,0.0,0,0.0,1
197649,212271,--,0.000,0.000,0.000,0.0,0,0.0,1
197652,212275,--,0.000,0.000,0.000,0.0,0,0.0,1
197653,212279,--,0.000,0.000,0.000,0.0,0,0.0,1
197659,212282,--,0.000,0.000,0.000,0.0,0,0.0,1
197659,212288,--,0.000,0.000,0.000,0.0,0,0.0,1
197667,212288,--,0.000,0.000,0.000,0.0,0,0.0,1
197667,212282,--,0.000,0.000,0.000,0.0,0,0.0,1
197672,212285,--,0.000,0.000,0.000,0.0,0,0.0,1
197677,212298,--,0.000,0.000,0.000,0.0,0,0.0,1
197681,212285,--,0.000,0.000,0.000,0.0,0,0.0,1
197691,212298,--,0.000,0.000,0.000,0.0,0,0.0,1
197685,212291,--,0.000,0.000,0.000,0.0,0,0.0,1
197695,212298,--,0.000,0.000,0.000,0.0,0,0.0,1
197700,212293,--,0.000,0.000,0.000,0.0,0,0.0,1
197699,212301,--,0.000,0.000,0.000,0.0,0,0.0,1
197708,212295,--,0.000,0.000,0.000,0.0,0,0.0,1
197706,212306,--,0.000,0.000,0.000,0.0,0,0.0,1
197713,212307,--,0.000,0.000,0.000,0.0,0,0.0,1
197717,212313,--,0.000,0.000,0.000,0.0,0,0.0,1
197722,212310,--,0.000,0.000,0.000,0.0,0,0.0,1
197730,212319,--,0.000,0.000,0.000,0.0,0,0.0,1
197728,212317,--,0.000,0.000,0.000,0.0,0,0.0,1
197734,212325,--,0.000,0.000,0.000,0.0,0,0.0,1
197735,212328,--,0.000,0.000,0.000,0.0,0,0.0,1
197747,212331,--,0.000,0.000,0.000,0.0,0,0.0,1
197754,212332,--,0.000,0.000,0.000,0.0,0,0.0,1
197756,212337,--,0.000,0.000,0.000,0.0,0,0.0,1
197755,212336,--,0.000,0.000,0.000,0.0,0,0.0,1
197764,212340,--,0.000,0.000,0.000,0.0,0,0.0,1
197773,212354,--,0.000,0.000,0.000,0.0,0,0.0,1
197778,212351,--,0.000,0.000,0.000,0.0,0,0.0,1
197784,212352,--,0.000,0.000,0.000,0.0,0,0.0,1
197786,212358,--,0.000,0.000,0.000,0.0,0,0.0,1
197795,212363,--,0.000,0.000,0.000,0.0,0,0.0,1
197792,212373,--,0.000,0.000,0.000,0.0,0,0.0,1
197798,212376,--,0.000,0.000,0.000,0.0,0,0.0,1
197794,212370,--,0.000,0.000,0.000,0.0,0,0.0,1
197803,212374,--,0.000,0.000,0.000,0.0,0,0.0,1
197806,212371,--,0.000,0.000,0.000,0.0,0,0.0,1
197812,212377,--,0.000,0.000,0.000,0.0,0,0.0,1
197806,212373,--,0.000,0.000,0.000,0.0,0,0.0,1
197813,212376,--,0.000,0.000,0.000,0.0,0,0.0,1
197824,212383,--,0.000,0.000,0.000,0.0,0,0.0,1
197824,212382,--,0.000,0.000,0.000,0.0,0,0.0,1
197832,212388,--,0.000,0.000,0.000,0.0,0,0.0,1
197820,212384,--,0.000,0.000,0.000,0.0,0,0.0,1
197832,212382,--,0.000,0.000,0.000,0.0,0,0.0,1
197839,212390,--,0.000,0.000,0.000,0.0,0,0.0,1
197834,212394,--,0.000,0.000,0.000,0.0,0,0.0,1
197843,212398,--,0.000,0.000,0.000,0.0,0,0.0,1
197847,212407,--,0.000,0.000,0.000,0.0,0,0.0,1
197853,212406,--,0.000,0.000,0.000,0.0,0,0.0,1
197857,212402,--,0.000,0.000,0.000,0.0,0,0.0,1
197847,212402,--,0.000,0.000,0.000,0.0,0,0.0,1
197857,212409,--,0.000,0.000,0.000,0.0,0,0.0,1
197855,212405,--,0.000,0.000,0.000,0.0,0,0.0,1
197853,212410,--,0.000,0.000,0.000,0.0,0,0.0,1
197855,212401,--,0.000,0.000,0.000,0.0,0,0.0,1
197858,212402,--,0.000,0.000,0.000,0.0,0,0.0,1
197857,212414,--,0.000,0.000,0.000,0.0,0,0.0,1
197853,212414,--,0.000,0.000,0.000,0.0,0,0.0,1
197858,212413,--,0.000,0.000,0.000,0.0,0,0.0,1
197867,212413,--,0.000,0.000,0.000,0.0,0,0.0,1
197867,212411,--,0.000,0.000,0.000,0.0,0,0.0,1
197871,212406,--,0.000,0.000,0.000,0.0,0,0.0,1
197869,212405,--,0.000,0.000,0.000,0.0,0,0.0,1
197876,212410,--,0.000,0.000,0.000,0.0,0,0.0,1
197879,212415,--,0.000,0.000,0.000,0.0,0,0.0,1
197868,212411,--,0.000,0.000,0.000,0.0,0,0.0,1
197879,212413,--,0.000,0.000,0.000,0.0,0,0.0,1
197877,212415,--,0.000,0.000,0.000,0.0,0,0.0,1
197887,212413,--,0.000,0.000,0.000,0.0,0,0.0,1
197886,212423,--,0.000,0.000,0.000,0.0,0,0.0,1
197880,212414,--,0.000,0.000,0.000,0.0,0,0.0,1
197888,212417,--,0.000,0.000,0.000,0.0,0,0.0,1
197879,212411,--,0.000,0.000,0.000,0.0,0,0.0,1
197885,212417,--,0.000,0.000,0.000,0.0,0,0.0,1
197896,212421,--,0.000,0.000,0.000,0.0,0,0.0,1
197893,212418,--,0.000,0.000,0.000,0.0,0,0.0,1
197895,212423,--,0.000,0.000,0.000,0.0,0,0.0,1
197891,212419,--,0.000,0.000,0.000,0.0,0,0.0,1
197894,212428,--,0.000,0.000,0.000,0.0,0,0.0,1
197895,212421,--,0.000,0.000,0.000,0.0,0,0.0,1
197901,212424,--,0.000,0.000,0.000,0.0,0,0.0,1
197901,212423,--,0.000,0.000,0.000,0.0,0,0.0,1
197907,212425,--,0.000,0.000,0.000,0.0,0,0.0,1
197895,212424,--,0.000,0.000,0.000,0.0,0,0.0,1
197895,212425,--,0.000,0.000,0.000,0.0,0,0.0,1
197888,212426,--,0.000,0.000,0.000,0.0,0,0.0,1
197880,212430,--,0.000,0.000,0.000,0.0,0,0.0,1
197866,212417,--,0.000,0.000,0.000,0.0,0,0.0,1
197849,212413,--,0.000,0.000,0.000,0.0,0,0.0,1
197825,212417,--,0.000,0.000,0.000,0.0,0,0.0,1
197816,212400,--,0.000,0.000,0.000,0.0,0,0.0,1
197794,212395,--,0.000,0.000,0.000,0.0,0,0.0,1
197782,212409,--,0.000,0.000,0.000,0.0,0,0.0,1
197765,212394,--,0.000,0.000,0.000,0.0,0,0.0,1
197755,212397,--,0.000,0.000,0.000,0.0,0,0.0,1
197741,212387,--,0.000,0.000,0.000,0.0,0,0.0,1
197738,212389,--,0.000,0.000,0.000,0.0,0,0.0,1
197727,212396,--,0.000,0.000,0.000,0.0,0,0.0,1
197727,212395,--,0.000,0.000,0.000,0.0,0,0.0,1
197714,212396,--,0.000,0.000,0.000,0.0,0,0.0,1
197716,212392,--,0.000,0.000,0.000,0.0,0,0.0,1
197711,212392,--,0.000,0.000,0.000,0.0,0,0.0,1
197710,212396,--,0.000,0.000,0.000,0.0,0,0.0,1
197711,212393,--,0.000,0.000,0.000,0.0,0,0.0,1
197716,212398,--,0.000,0.000,0.000,0.0,0,0.0,1
197716,212401,--,0.000,0.000,0.000,0.0,0,0.0,1
197720,212406,--,0.000,0.000,0.000,0.0,0,0.0,1
197716,212403,--,0.000,0.000,0.000,0.0,0,0.0,1
197722,212411,--,0.000,0.000,0.000,0.0,0,0.0,1
197720,212404,--,0.000,0.000,0.000,0.0,0,0.0,1
197729,212409,--,0.000,0.000,0.000,0.0,0,0.0,1
197725,212396,--,0.000,0.000,0.000,0.0,0,0.0,1
197730,212400,--,0.000,0.000,0.000,0.0,0,0.0,1
197733,212407,--,0.000,0.000,0.000,0.0,0,0.0,1
197734,212405,--,0.000,0.000,0.000,0.0,0,0.0,1
197733,212408,--,0.000,0.000,0.000,0.0,0,0.0,1
197740,212406,--,0.000,0.000,0.000,0.0,0,0.0,1
197732,212406,--,0.000,0.000,0.000,0.0,0,0.0,1
197729,212403,--,0.000,0.000,0.000,0.0,0,0.0,1
197735,212403,--,0.000,0.000,0.000,0.0,0,0.0,1
197733,212410,--,0.000,0.000,0.000,0.0,0,0.0,1
197731,212408,--,0.000,0.000,0.000,0.0,0,0.0,1
197738,212405,--,0.000,0.000,0.000,0.0,0,0.0,1
197734,212404,--,0.000,0.000,0.000,0.0,0,0.0,1
197746,212414,--,0.000,0.000,0.000,0.0,0,0.0,1
197740,212402,--,0.000,0.000,0.000,0.0,0,0.0,1
197741,212404,--,0.000,0.000,0.000,0.0,0,0.0,1
197737,212403,--,0.000,0.000,0.000,0.0,0,0.0,1
197749,212412,--,0.000,0.000,0.000,0.0,0,0.0,1
197747,212410,--,0.000,0.000,0.000,0.0,0,0.0,1
197751,212411,--,0.000,0.000,0.000,0.0,0,0.0,1
197752,212407,--,0.000,0.000,0.000,0.0,0,0.0,1
197753,212398,--,0.000,0.000,0.000,0.0,0,0.0,1
197745,212410,--,0.000,0.000,0.000,0.0,0,0.0,1
197761,212410,--,0.000,0.000,0.000,0.0,0,0.0,1
197753,212399,--,0.000,0.000,0.000,0.0,0,0.0,1
197757,212402,--,0.000,0.000,0.000,0.0,0,0.0,1
197749,212399,--,0.000,0.000,0.000,0.0,0,0.0,1
197754,212397,--,0.000,0.000,0.000,0.0,0,0.0,1
197753,212390,--,0.000,0.000,0.000,0.0,0,0.0,1
197755,212395,--,0.000,0.000,0.000,0.0,0,0.0,1
197750,212391,--,0.000,0.000,0.000,0.0,0,0.0,1
197753,212392,--,0.000,0.000,0.000,0.0,0,0.0,1
197753,212389,--,0.000,0.000,0.000,0.0,0,0.0,1
197751,212385,--,0.000,0.000,0.000,0.0,0,0.0,1
197741,212380,--,0.000,0.000,0.000,0.0,0,0.0,1
197743,212379,--,0.000,0.000,0.000,0.0,0,0.0,1
197748,212376,--,0.000,0.000,0.000,0.0,0,0.0,1
197745,212368,--,0.000,0.000,0.000,0.0,0,0.0,1
197742,212376,--,0.000,0.000,0.000,0.0,0,0.0,1
197758,212377,--,0.000,0.000,0.000,0.0,0,0.0,1
197748,212376,--,0.000,0.000,0.000,0.0,0,0.0,1
197754,212378,--,0.000,0.000,0.000,0.0,0,0.0,1
197756,212380,--,0.000,0.000,0.000,0.0,0,0.0,1
197754,212375,--,0.000,0.000,0.000,0.0,0,0.0,1
197750,212374,--,0.000,0.000,0.000,0.0,0,0.0,1
197750,212375,--,0.000,0.000,0.000,0.0,0,0.0,1
197747,212369,--,0.000,0.000,0.000,0.0,0,0.0,1
197752,212372,--,0.000,0.000,0.000,0.0,0,0.0,1
197747,212362,--,0.000,0.000,0.000,0.0,0,0.0,1
197752,212365,--,0.000,0.000,0.000,0.0,0,0.0,1
197754,212369,--,0.000,0.000,0.000,0.0,0,0.0,1
197759,212377,--,0.000,0.000,0.000,0.0,0,0.0,1
197758,212371,--,0.000,0.000,0.000,0.0,0,0.0,1
197760,212376,--,0.000,0.000,0.000,0.0,0,0.0,1
197766,212377,--,0.000,0.000,0.000,0.0,0,0.0,1
197766,212377,--,0.000,0.000,0.000,0.0,0,0.0,1
197768,212384,--,0.000,0.000,0.000,0.0,0,0.0,1
197778,212382,--,0.000,0.000,0.000,0.0,0,0.0,1
197776,212388,--,0.000,0.000,0.000,0.0,0,0.0,1
197788,212399,--,0.000,0.000,0.000,0.0,0,0.0,1
197790,212397,--,0.000,0.000,0.000,0.0,0,0.0,1
197807,212398,--,0.000,0.000,0.000,0.0,0,0.0,1
197801,212402,--,0.000,0.000,0.000,0.0,0,0.0,1
197809,212410,--,0.000,0.000,0.000,0.0,0,0.0,1
197813,212408,--,0.000,0.000,0.000,0.0,0,0.0,1
197817,212414,--,0.000,0.000,0.000,0.0,0,0.0,1
197820,212415,--,0.000,0.000,0.000,0.0,0,0.0,1
197833,212429,--,0.000,0.000,0.000,0.0,0,0.0,1
197838,212428,--,0.000,0.000,0.000,0.0,0,0.0,1
197852,212437,--,0.000,0.000,0.000,0.0,0,0.0,1
197847,212440,--,0.000,0.000,0.000,0.0,0,0.0,1
197864,212448,--,0.000,0.000,0.000,0.0,0,0.0,1
197868,212446,--,0.000,0.000,0.000,0.0,0,0.0,1
197869,212459,--,0.000,0.000,0.000,0.0,0,0.0,1
197870,212458,--,0.000,0.000,0.000,0.0,0,0.0,1
197880,212467,--,0.000,0.000,0.000,0.0,0,0.0,1
197884,212462,--,0.000,0.000,0.000,0.0,0,0.0,2
197888,212477,--,0.000,0.000,0.000,0.0,0,0.0,2
197888,212482,--,0.000,0.000,0.000,0.0,0,0.0,2
197888,212477,--,0.000,0.000,0.000,0.0,0,0.0,2
197891,212466,--,0.000,0.000,0.000,0.0,0,0.0,2
197893,212474,--,0.000,0.000,0.000,0.0,0,0.0,2
197892,212468,--,0.000,0.000,0.000,0.0,0,0.0,2
197891,212477,--,0.000,0.000,0.000,0.0,0,0.0,2
197893,212468,--,0.000,0.000,0.000,0.0,0,0.0,2
197895,212481,--,0.000,0.000,0.000,0.0,0,0.0,2
197890,212478,--,0.000,0.000,0.000,0.0,0,0.0,2
197895,212486,--,0.000,0.000,0.000,0.0,0,0.0,2
197901,212472,--,0.000,0.000,0.000,0.0,0,0.0,2
197904,212476,--,0.000,0.000,0.000,0.0,0,0.0,2
197901,212470,--,0.000,0.000,0.000,0.0,0,0.0,2
197905,212474,--,0.000,0.000,0.000,0.0,0,0.0,2
197905,212476,--,0.000,0.000,0.000,0.0,0,0.0,2
197907,212476,--,0.000,0.000,0.000,0.0,0,0.0,2
197909,212478,--,0.000,0.000,0.000,0.0,0,0.0,2
197906,212484,--,0.000,0.000,0.000,0.0,0,0.0,2
197895,212478,--,0.000,0.000,0.000,0.0,0,0.0,2
197901,212471,--,0.000,0.000,0.000,0.0,0,0.0,2
197904,212471,--,0.000,0.000,0.000,0.0,0,0.0,2
197898,212472,--,0.000,0.000,0.000,0.0,0,0.0,2
197902,212466,--,0.000,0.000,0.000,0.0,0,0.0,2
197905,212472,--,0.000,0.000,0.000,0.0,0,0.0,2
197897,212470,--,0.000,0.000,0.000,0.0,0,0.0,2
197898,212472,--,0.000,0.000,0.000,0.0,0,0.0,2
197902,212460,--,0.000,0.000,0.000,0.0,0,0.0,2
197901,212468,--,0.000,0.000,0.000,0.0,0,0.0,2
197898,212460,--,0.000,0.000,0.000,0.0,0,0.0,2
197894,212464,--,0.000,0.000,0.000,0.0,0,0.0,2
197893,212456,--,0.000,0.000,0.000,0.0,0,0.0,2
197894,212465,--,0.000,0.000,0.000,0.0,0,0.0,2
197900,212453,--,0.000,0.000,0.000,0.0,0,0.0,2
197901,212455,--,0.000,0.000,0.000,0.0,0,0.0,2
197888,212459,--,0.000,0.000,0.000,0.0,0,0.0,2
197899,212460,--,0.000,0.000,0.000,0.0,0,0.0,2
197901,212460,--,0.000,0.000,0.000,0.0,0,0.0,2
197907,212470,--,0.000,0.000,0.000,0.0,0,0.0,2
197911,212466,--,0.000,0.000,0.000,0.0,0,0.0,2
197915,212471,--,0.000,0.000,0.000,0.0,0,0.0,2
197913,212467,--,0.000,0.000,0.000,0.0,0,0.0,2
197917,212470,--,0.000,0.000,0.000,0.0,0,0.0,2
197918,212471,--,0.000,0.000,0.000,0.0,0,0.0,2
197927,212470,--,0.000,0.000,0.000,0.0,0,0.0,2
197929,212467,--,0.000,0.000,0.000,0.0,0,0.0,2
197927,212478,--,0.000,0.000,0.000,0.0,0,0.0,2
197928,212480,--,0.000,0.000,0.000,0.0,0,0.0,2
197933,212473,--,0.000,0.000,0.000,0.0,0,0.0,2
197928,212477,--,0.000,0.000,0.000,0.0,0,0.0,2
197937,212479,--,0.000,0.000,0.000,0.0,0,0.0,2
197934,212473,--,0.000,0.000,0.000,0.0,0,0.0,2
197942,212484,--,0.000,0.000,0.000,0.0,0,0.0,2
197943,212476,--,0.000,0.000,0.000,0.0,0,0.0,2
197947,212483,--,0.000,0.000,0.000,0.0,0,0.0,2
197953,212477,--,0.000,0.000,0.000,0.0,0,0.0,2
197944,212478,--,0.000,0.000,0.000,0.0,0,0.0,2
197947,212490,--,0.000,0.000,0.000,0.0,0,0.0,2
197953,212480,--,0.000,0.000,0.000,0.0,0,0.0,2
197949,212480,--,0.000,0.000,0.000,0.0,0,0.0,2
197941,212473,--,0.000,0.000,0.000,0.0,0,0.0,2
197949,212484,--,0.000,0.000,0.000,0.0,0,0.0,2
197946,212482,--,0.000,0.000,0.000,0.0,0,0.0,2
197945,212477,--,0.000,0.000,0.000,0.0,0,0.0,2
197941,212470,--,0.000,0.000,0.000,0.0,0,0.0,2
197925,212464,--,0.000,0.000,0.000,0.0,0,0.0,2
197909,212459,--,0.000,0.000,0.000,0.0,0,0.0,2
197894,212459,--,0.000,0.000,0.000,0.0,0,0.0,2
197872,212457,--,0.000,0.000,0.000,0.0,0,0.0,2
197857,212442,--,0.000,0.000,0.000,0.0,0,0.0,2
197832,212428,--,0.000,0.000,0.000,0.0,0,0.0,2
197808,212424,--,0.000,0.000,0.000,0.0,0,0.0,2
197784,212416,--,0.000,0.000,0.000,0.0,0,0.0,2
197772,212413,--,0.000,0.000,0.000,0.0,0,0.0,2
197758,212406,--,0.000,0.000,0.000,0.0,0,0.0,2
197748,212404,--,0.000,0.000,0.000,0.0,0,0.0,2
197736,212393,--,0.000,0.000,0.000,0.0,0,0.0,2
197715,212394,--,0.000,0.000,0.000,0.0,0,0.0,2
197707,212385,--,0.000,0.000,0.000,0.0,0,0.0,2
197697,212371,--,0.000,0.000,0.000,0.0,0,0.0,2
197688,212365,--,0.000,0.000,0.000,0.0,0,0.0,2
197671,212352,--,0.000,0.000,0.000,0.0,0,0.0,2
197670,212354,--,0.000,0.000,0.000,0.0,0,0.0,2
197660,212347,--,0.000,0.000,0.000,0.0,0,0.0,2
197669,212347,--,0.000,0.000,0.000,0.0,0,0.0,2
197661,212338,--,0.000,0.000,0.000,0.0,0,0.0,2
197665,212338,--,0.000,0.000,0.000,0.0,0,0.0,2
197675,212347,--,0.000,0.000,0.000,0.0,0,0.0,2
197675,212350,--,0.000,0.000,0.000,0.0,0,0.0,2
197672,212345,--,0.000,0.000,0.000,0.0,0,0.0,2
197680,212349,--,0.000,0.000,0.000,0.0,0,0.0,2
197678,212342,--,0.000,0.000,0.000,0.0,0,0.0,2
197688,212353,--,0.000,0.000,0.000,0.0,0,0.0,2
197694,212354,--,0.000,0.000,0.000,0.0,0,0.0,2
197700,212356,--,0.000,0.000,0.000,0.0,0,0.0,2
197702,212352,--,0.000,0.000,0.000,0.0,0,0.0,2
197702,212363,--,0.000,0.000,0.000,0.0,0,0.0,2
197700,212351,--,0.000,0.000,0.000,0.0,0,0.0,2
197708,212356,--,0.000,0.000,0.000,0.0,0,0.0,2
197704,212360,--,0.000,0.000,0.000,0.0,0,0.0,2
197706,212358,--,0.000,0.000,0.000,0.0,0,0.0,2
197715,212359,--,0.000,0.000,0.000,0.0,0,0.0,2
197714,212358,--,0.000,0.000,0.000,0.0,0,0.0,2
197716,212368,--,0.000,0.000,0.000,0.0,0,0.0,2
197720,212364,--,0.000,0.000,0.000,0.0,0,0.0,2
197723,212364,--,0.000,0.000,0.000,0.0,0,0.0,2
197719,212366,--,0.000,0.000,0.000,0.0,0,0.0,2
197725,212363,--,0.000,0.000,0.000,0.0,0,0.0,2
197733,212369,--,0.000,0.000,0.000,0.0,0,0.0,2
197729,212365,--,0.000,0.000,0.000,0.0,0,0.0,2
197731,212367,--,0.000,0.000,0.000,0.0,0,0.0,2
197734,212373,--,0.000,0.000,0.000,0.0,0,0.0,2
197740,212369,--,0.000,0.000,0.000,0.0,0,0.0,2
197744,212377,--,0.000,0.000,0.000,0.0,0,0.0,2
197744,212374,--,0.000,0.000,0.000,0.0,0,0.0,2
197749,212372,--,0.000,0.000,0.000,0.0,0,0.0,2
197751,212380,--,0.000,0.000,0.000,0.0,0,0.0,2
197763,212375,--,0.000,0.000,0.000,0.0,0,0.0,2
197763,212382,--,0.000,0.000,0.000,0.0,0,0.0,2
197762,212387,--,0.000,0.000,0.000,0.0,0,0.0,2
197755,212385,--,0.000,0.000,0.000,0.0,0,0.0,2
197763,212369,--,0.000,0.000,0.000,0.0,0,0.0,2
197761,212369,--,0.000,0.000,0.000,0.0,0,0.0,2
197773,212376,--,0.000,0.000,0.000,0.0,0,0.0,2
197775,212383,--,0.000,0.000,0.000,0.0,0,0.0,2
197766,212379,--,0.000,0.000,0.000,0.0,0,0.0,2
197768,212382,--,0.000,0.000,0.000,0.0,0,0.0,2
197770,212385,--,0.000,0.000,0.000,0.0,0,0.0,2
197768,212381,--,0.000,0.000,0.000,0.0,0,0.0,2
197766,212374,--,0.000,0.000,0.000,0.0,0,0.0,2
197768,212382,--,0.000,0.000,0.000,0.0,0,0.0,2
197770,212382,--,0.000,0.000,0.000,0.0,0,0.0,2
197782,212391,--,0.000,0.000,0.000,0.0,0,0.0,2
197783,212385,--,0.000,0.000,0.000,0.0,0,0.0,2
197780,212387,--,0.000,0.000,0.000,0.0,0,0.0,2
197777,212395,--,0.000,0.000,0.000,0.0,0,0.0,2
197789,212398,--,0.000,0.000,0.000,0.0,0,0.0,2
197788,212392,--,0.000,0.000,0.000,0.0,0,0.0,2
197794,212400,--,0.000,0.000,0.000,0.0,0,0.0,2
197800,212399,--,0.000,0.000,0.000,0.0,0,0.0,2
197804,212404,--,0.000,0.000,0.000,0.0,0,0.0,2
197801,212405,--,0.000,0.000,0.000,0.0,0,0.0,2
197804,212400,--,0.000,0.000,0.000,0.0,0,0.0,2
197803,212398,--,0.000,0.000,0.000,0.0,0,0.0,2
197805,212401,--,0.000,0.000,0.000,0.0,0,0.0,2
197811,212404,--,0.000,0.000,0.000,0.0,0,0.0,2
197806,212400,--,0.000,0.000,0.000,0.0,0,0.0,2
197816,212398,--,0.000,0.000,0.000,0.0,0,0.0,2
197809,212405,--,0.000,0.000,0.000,0.0,0,0.0,2
197822,212407,--,0.000,0.000,0.000,0.0,0,0.0,2
197822,212407,--,0.000,0.000,0.000,0.0,0,0.0,2
197832,212407,--,0.000,0.000,0.000,0.0,0,0.0,2
197827,212408,--,0.000,0.000,0.000,0.0,0,0.0,2
197834,212409,--,0.000,0.000,0.000,0.0,0,0.0,2
197835,212410,--,0.000,0.000,0.000,0.0,0,0.0,2
197838,212416,--,0.000,0.000,0.000,0.0,0,0.0,2
197842,212423,--,0.000,0.000,0.000,0.0,0,0.0,2
197850,212417,--,0.000,0.000,0.000,0.0,0,0.0,2
197851,212422,--,0.000,0.000,0.000,0.0,0,0.0,2
197851,212428,--,0.000,0.000,0.000,0.0,0,0.0,2
197847,212416,--,0.000,0.000,0.000,0.0,0,0.0,2
197859,212421,--,0.000,0.000,0.000,0.0,0,0.0,2
197864,212423,--,0.000,0.000,0.000,0.0,0,0.0,2
197867,212429,--,0.000,0.000,0.000,0.0,0,0.0,2
197861,212428,--,0.000,0.000,0.000,0.0,0,0.0,2
197870,212425,--,0.000,0.000,0.000,0.0,0,0.0,2
197875,212426,--,0.000,0.000,0.000,0.0,0,0.0,2
197870,212429,--,0.000,0.000,0.000,0.0,0,0.0,2
197873,212426,--,0.000,0.000,0.000,0.0,0,0.0,2
197886,212429,--,0.000,0.000,0.000,0.0,0,0.0,2
197877,212428,--,0.000,0.000,0.000,0.0,0,0.0,2
197881,212437,--,0.000,0.000,0.000,0.0,0,0.0,2
197884,212433,--,0.000,0.000,0.000,0.0,0,0.0,2
197893,212436,--,0.000,0.000,0.000,0.0,0,0.0,2
197890,212434,--,0.000,0.000,0.000,0.0,0,0.0,2
197888,212440,--,0.000,0.000,0.000,0.0,0,0.0,2
197891,212437,--,0.000,0.000,0.000,0.0,0,0.0,2
197894,212438,--,0.000,0.000,0.000,0.0,0,0.0,2
197891,212431,--,0.000,0.000,0.000,0.0,0,0.0,2
197899,212431,--,0.000,0.000,0.000,0.0,0,0.0,2
197888,212434,--,0.000,0.000,0.000,0.0,0,0.0,2
197897,212429,--,0.000,0.000,0.000,0.0,0,0.0,2
197896,212429,--,0.000,0.000,0.000,0.0,0,0.0,2
197904,212438,--,0.000,0.000,0.000,0.0,0,0.0,2
197905,212434,--,0.000,0.000,0.000,0.0,0,0.0,2
197899,212434,--,0.000,0.000,0.000,0.0,0,0.0,2
197907,212437,--,0.000,0.000,0.000,0.0,0,0.0,2
197913,212441,--,0.000,0.000,0.000,0.0,0,0.0,2
197908,212441,--,0.000,0.000,0.000,0.0,0,0.0,2
197919,212439,--,0.000,0.000,0.000,0.0,0,0.0,2
197921,212438,--,0.000,0.000,0.000,0.0,0,0.0,2
197917,212437,--,0.000,0.000,0.000,0.0,0,0.0,2
197924,212436,--,0.000,0.000,0.000,0.0,0,0.0,2
197923,212449,--,0.000,0.000,0.000,0.0,0,0.0,2
197919,212439,--,0.000,0.000,0.000,0.0,0,0.0,2
197923,212442,--,0.000,0.000,0.000,0.0,0,0.0,2
197926,212445,--,0.000,0.000,0.000,0.0,0,0.0,2
197928,212443,--,0.000,0.000,0.000,0.0,0,0.0,2
197922,212443,--,0.000,0.000,0.000,0.0,0,0.0,2
197925,212448,--,0.000,0.000,0.000,0.0,0,0.0,2
197932,212440,--,0.000,0.000,0.000,0.0,0,0.0,2
197934,212446,--,0.000,0.000,0.000,0.0,0,0.0,2
197927,212446,--,0.000,0.000,0.000,0.0,0,0.0,2
197933,212446,--,0.000,0.000,0.000,0.0,0,0.0,2
197937,212450,--,0.000,0.000,0.000,0.0,0,0.0,2
197942,212449,--,0.000,0.000,0.000,0.0,0,0.0,2
197924,212437,--,0.000,0.000,0.000,0.0,0,0.0,2
197931,212443,--,0.000,0.000,0.000,0.0,0,0.0,2
197932,212442,--,0.000,0.000,0.000,0.0,0,0.0,2
197944,212451,--,0.000,0.000,0.000,0.0,0,0.0,2
197949,212448,--,0.000,0.000,0.000,0.0,0,0.0,2
197950,212450,--,0.000,0.000,0.000,0.0,0,0.0,2
197940,212450,--,0.000,0.000,0.000,0.0,0,0.0,2
197956,212450,--,0.000,0.000,0.000,0.0,0,0.0,2
197945,212453,--,0.000,0.000,0.000,0.0,0,0.0,2
197952,212447,--,0.000,0.000,0.000,0.0,0,0.0,2
197948,212447,--,0.000,0.000,0.000,0.0,0,0.0,2
197954,212444,--,0.000,0.000,0.000,0.0,0,0.0,2
197945,212438,--,0.000,0.000,0.000,0.0,0,0.0,2
197953,212446,--,0.000,0.000,0.000,0.0,0,0.0,2
197950,212443,--,0.000,0.000,0.000,0.0,0,0.0,2
197953,212438,--,0.000,0.000,0.000,0.0,0,0.0,2
197954,212432,--,0.000,0.000,0.000,0.0,0,0.0,2
197951,212434,--,0.000,0.000,0.000,0.0,0,0.0,2
197946,212431,--,0.000,0.000,0.000,0.0,0,0.0,2
197950,212432,--,0.000,0.000,0.000,0.0,0,0.0,2
197954,212429,--,0.000,0.000,0.000,0.0,0,0.0,2
197950,212428,--,0.000,0.000,0.000,0.0,0,0.0,2
197955,212433,--,0.000,0.000,0.000,0.0,0,0.0,2
197962,212431,--,0.000,0.000,0.000,0.0,0,0.0,2
197960,212431,--,0.000,0.000,0.000,0.0,0,0.0,2
197956,212426,--,0.000,0.000,0.000,0.0,0,0.0,2
197946,212415,--,0.000,0.000,0.000,0.0,0,0.0,2
197949,212421,--,0.000,0.000,0.000,0.0,0,0.0,2
197938,212410,--,0.000,0.000,0.000,0.0,0,0.0,2
197940,212400,--,0.000,0.000,0.000,0.0,0,0.0,2
197927,212397,--,0.000,0.000,0.000,0.0,0,0.0,2
197927,212391,--,0.000,0.000,0.000,0.0,0,0.0,2
197908,212377,--,0.000,0.000,0.000,0.0,0,0.0,2
197905,212372,--,0.000,0.000,0.000,0.0,0,0.0,2
197884,212358,--,0.000,0.000,0.000,0.0,0,0.0,2
197872,212346,--,0.000,0.000,0.000,0.0,0,0.0,2
197850,212322,--,0.000,0.000,0.000,0.0,0,0.0,2
197820,212308,--,0.000,0.000,0.000,0.0,0,0.0,2
197783,212286,--,0.000,0.000,0.000,0.0,0,0.0,2
197753,212262,--,0.000,0.000,0.000,0.0,0,0.0,2
197722,212236,--,0.000,0.000,0.000,0.0,0,0.0,2
197685,212213,--,0.000,0.000,0.000,0.0,0,0.0,2
197654,212195,--,0.000,0.000,0.000,0.0,0,0.0,2
197623,212181,--,0.000,0.000,0.000,0.0,0,0.0,2
197586,212156,--,0.000,0.000,0.000,0.0,0,0.0,2
197561,212140,--,0.000,0.000,0.000,0.0,0,0.0,2
197535,212120,--,0.000,0.000,0.000,0.0,0,0.0,2
197517,212107,--,0.000,0.000,0.000,0.0,0,0.0,2
197499,212088,--,0.000,0.000,0.000,0.0,0,0.0,2
197484,212079,--,0.000,0.000,0.000,0.0,0,0.0,2
197468,212061,--,0.000,0.000,0.000,0.0,0,0.0,2
197458,212060,--,0.000,0.000,0.000,0.0,0,0.0,2
197441,212040,--,0.000,0.000,0.000,0.0,0,0.0,2
197440,212041,--,0.000,0.000,0.000,0.0,0,0.0,2
197428,212040,--,0.000,0.000,0.000,0.0,0,0.0,2
197418,212034,--,0.000,0.000,0.000,0.0,0,0.0,2
197420,212014,--,0.000,0.000,0.000,0.0,0,0.0,2
197418,212025,--,0.000,0.000,0.000,0.0,0,0.0,2
197421,212010,--,0.000,0.000,0.000,0.0,0,0.0,2
197415,212014,--,0.000,0.000,0.000,0.0,0,0.0,2
197413,212002,--,0.000,0.000,0.000,0.0,0,0.0,2
197407,211999,--,0.000,0.000,0.000,0.0,0,0.0,2
197414,211999,--,0.000,0.000,0.000,0.0,0,0.0,2
197400,211995,--,0.000,0.000,0.000,0.0,0,0.0,2
197402,211987,--,0.000,0.000,0.000,0.0,0,0.0,2
197403,211987,--,0.000,0.000,0.000,0.0,0,0.0,2
197400,211979,--,0.000,0.000,0.000,0.0,0,0.0,2
197399,211976,--,0.000,0.000,0.000,0.0,0,0.0,2
197393,211971,--,0.000,0.000,0.000,0.0,0,0.0,2
197396,211963,--,0.000,0.000,0.000,0.0,0,0.0,2
197391,211961,--,0.000,0.000,0.000,0.0,0,0.0,2
197387,211958,--,0.000,0.000,0.000,0.0,0,0.0,2
197374,211951,--,0.000,0.000,0.000,0.0,0,0.0,2
197377,211950,--,0.000,0.000,0.000,0.0,0,0.0,2
197372,211943,--,0.000,0.000,0.000,0.0,0,0.0,2
197373,211933,--,0.000,0.000,0.000,0.0,0,0.0,2
197369,211933,--,0.000,0.000,0.000,0.0,0,0.0,2
197374,211928,--,0.000,0.000,0.000,0.0,0,0.0,2
197372,211930,--,0.000,0.000,0.000,0.0,0,0.0,2
197380,211937,--,0.000,0.000,0.000,0.0,0,0.0,2
197375,211935,--,0.000,0.000,0.000,0.0,0,0.0,2
197381,211938,--,0.000,0.000,0.000,0.0,0,0.0,2
197377,211931,--,0.000,0.000,0.000,0.0,0,0.0,2
197385,211931,--,0.000,0.000,0.000,0.0,0,0.0,2
197382,211922,--,0.000,0.000,0.000,0.0,0,0.0,2
197385,211927,--,0.000,0.000,0.000,0.0,0,0.0,2
197384,211927,--,0.000,0.000,0.000,0.0,0,0.0,2
197399,211928,--,0.000,0.000,0.000,0.0,0,0.0,2
197392,211929,--,0.000,0.000,0.000,0.0,0,0.0,2
197403,211933,--,0.000,0.000,0.000,0.0,0,0.0,2
197401,211930,--,0.000,0.000,0.000,0.0,0,0.0,2
197407,211938,--,0.000,0.000,0.000,0.0,0,0.0,2
197407,211932,--,0.000,0.000,0.000,0.0,0,0.0,2
197404,211929,--,0.000,0.000,0.000,0.0,0,0.0,2
197406,211925,--,0.000,0.000,0.000,0.0,0,0.0,2
197412,211934,--,0.000,0.000,0.000,0.0,0,0.0,2
197416,211934,--,0.000,0.000,0.000,0.0,0,0.0,2
197411,211931,--,0.000,0.000,0.000,0.0,0,0.0,2
197403,211931,--,0.000,0.000,0.000,0.0,0,0.0,2
197412,211939,--,0.000,0.000,0.000,0.0,0,0.0,2
197407,211926,--,0.000,0.000,0.000,0.0,0,0.0,2
197418,211933,--,0.000,0.000,0.000,0.0,0,0.0,2
197406,211926,--,0.000,0.000,0.000,0.0,0,0.0,2
197412,211928,--,0.000,0.000,0.000,0.0,0,0.0,2
197404,211924,--,0.000,0.000,0.000,0.0,0,0.0,2
197412,211932,--,0.000,0.000,0.000,0.0,0,0.0,2
197408,211925,--,0.000,0.000,0.000,0.0,0,0.0,2
197416,211937,--,0.000,0.000,0.000,0.0,0,0.0,2
197411,211939,--,0.000,0.000,0.000,0.0,0,0.0,2
197426,211939,--,0.000,0.000,0.000,0.0,0,0.0,2
197423,211936,--,0.000,0.000,0.000,0.0,0,0.0,2
197440,211939,--,0.000,0.000,0.000,0.0,0,0.0,2
197428,211938,--,0.000,0.000,0.000,0.0,0,0.0,2
197433,211947,--,0.000,0.000,0.000,0.0,0,0.0,2
197447,211944,--,0.000,0.000,0.000,0.0,0,0.0,2
197447,211951,--,0.000,0.000,0.000,0.0,0,0.0,2
197450,211952,--,0.000,0.000,0.000,0.0,0,0.0,2
197464,211961,--,0.000,0.000,0.000,0.0,0,0.0,2
197471,211961,--,0.000,0.000,0.000,0.0,0,0.0,2
197474,211966,--,0.000,0.000,0.000,0.0,0,0.0,2
197481,211964,--,0.000,0.000,0.000,0.0,0,0.0,2
197479,211975,--,0.000,0.000,0.000,0.0,0,0.0,2
197486,211975,--,0.000,0.000,0.000,0.0,0,0.0,2
197494,211971,--,0.000,0.000,0.000,0.0,0,0.0,2
197496,211969,--,0.000,0.000,0.000,0.0,0,0.0,2
197504,211970,--,0.000,0.000,0.000,0.0,0,0.0,2
197503,211967,--,0.000,0.000,0.000,0.0,0,0.0,2
197505,211969,--,0.000,0.000,0.000,0.0,0,0.0,2
197511,211976,--,0.000,0.000,0.000,0.0,0,0.0,2
197509,211984,--,0.000,0.000,0.000,0.0,0,0.0,2
197521,211981,--,0.000,0.000,0.000,0.0,0,0.0,2
197540,211991,--,0.000,0.000,0.000,0.0,0,0.0,2
197550,212001,--,0.000,0.000,0.000,0.0,0,0.0,2
197557,212007,--,0.000,0.000,0.000,0.0,0,0.0,2
197553,212009,--,0.000,0.000,0.000,0.0,0,0.0,2
197569,212015,--,0.000,0.000,0.000,0.0,0,0.0,2
197571,212009,--,0.000,0.000,0.000,0.0,0,0.0,2
197572,212015,--,0.000,0.000,0.000,0.0,0,0.0,2
197577,212021,--,0.000,0.000,0.000,0.0,0,0.0,2
197577,212015,--,0.000,0.000,0.000,0.0,0,0.0,2
197577,212012,--,0.000,0.000,0.000,0.0,0,0.0,2
197585,212022,--,0.000,0.000,0.000,0.0,0,0.0,2
197592,212023,--,0.000,0.000,0.000,0.0,0,0.0,2
197601,212035,--,0.000,0.000,0.000,0.0,0,0.0,2
197595,212025,--,0.000,0.000,0.000,0.0,0,0.0,2
197604,212030,--,0.000,0.000,0.000,0.0,0,0.0,2
197610,212029,--,0.000,0.000,0.000,0.0,0,0.0,2
197611,212029,--,0.000,0.000,0.000,0.0,0,0.0,2
197618,212032,--,0.000,0.000,0.000,0.0,0,0.0,2
197614,212033,--,0.000,0.000,0.000,0.0,0,0.0,2
197616,212033,--,0.000,0.000,0.000,0.0,0,0.0,2
197617,212035,--,0.000,0.000,0.000,0.0,0,0.0,2
197617,212033,--,0.000,0.000,0.000,0.0,0,0.0,2
197606,212035,--,0.000,0.000,0.000,0.0,0,0.0,2
197622,212036,--,0.000,0.000,0.000,0.0,0,0.0,2
197620,212030,--,0.000,0.000,0.000,0.0,0,0.0,2
197626,212036,--,0.000,0.000,0.000,0.0,0,0.0,2
197621,212037,--,0.000,0.000,0.000,0.0,0,0.0,2
197629,212037,--,0.000,0.000,0.000,0.0,0,0.0,2
197626,212029,--,0.000,0.000,0.000,0.0,0,0.0,2
197636,212037,--,0.000,0.000,0.000,0.0,0,0.0,2
197629,212034,--,0.000,0.000,0.000,0.0,0,0.0,2
197636,212023,--,0.000,0.000,0.000,0.0,0,0.0,2
197627,212028,--,0.000,0.000,0.000,0.0,0,0.0,2
197626,212030,--,0.000,0.000,0.000,0.0,0,0.0,2
197627,212034,--,0.000,0.000,0.000,0.0,0,0.0,2
197645,212038,--,0.000,0.000,0.000,0.0,0,0.0,2
197645,212040,--,0.000,0.000,0.000,0.0,0,0.0,2
197646,212044,--,0.000,0.000,0.000,0.0,0,0.0,2
197655,212044,--,0.000,0.000,0.000,0.0,0,0.0,2
197653,212046,--,0.000,0.000,0.000,0.0,0,0.0,2
197657,212046,--,0.000,0.000,0.000,0.0,0,0.0,2
197660,212046,--,0.000,0.000,0.000,0.0,0,0.0,2
197663,212048,--,0.000,0.000,0.000,0.0,0,0.0,2
197667,212058,--,0.000,0.000,0.000,0.0,0,0.0,2
197669,212055,--,0.000,0.000,0.000,0.0,0,0.0,2
197667,212050,--,0.000,0.000,0.000,0.0,0,0.0,2
197663,212051,--,0.000,0.000,0.000,0.0,0,0.0,2
197669,212047,--,0.000,0.000,0.000,0.0,0,0.0,2
197671,212056,--,0.000,0.000,0.000,0.0,0,0.0,2
197670,212054,--,0.000,0.000,0.000,0.0,0,0.0,2
197673,212057,--,0.000,0.000,0.000,0.0,0,0.0,2
197679,212048,--,0.000,0.000,0.000,0.0,0,0.0,2
197674,212051,--,0.000,0.000,0.000,0.0,0,0.0,2
197680,212053,--,0.000,0.000,0.000,0.0,0,0.0,2
197680,212058,--,0.000,0.000,0.000,0.0,0,0.0,2
197690,212064,--,0.000,0.000,0.000,0.0,0,0.0,2
197693,212055,--,0.000,0.000,0.000,0.0,0,0.0,2
197703,212060,--,0.000,0.000,0.000,0.0,0,0.0,2
197695,212066,--,0.000,0.000,0.000,0.0,0,0.0,2
197701,212061,--,0.000,0.000,0.000,0.0,0,0.0,2
197704,212072,--,0.000,0.000,0.000,0.0,0,0.0,2
197703,212068,--,0.000,0.000,0.000,0.0,0,0.0,2
197709,212066,--,0.000,0.000,0.000,0.0,0,0.0,2
197711,212067,--,0.000,0.000,0.000,0.0,0,0.0,2
197710,212069,--,0.000,0.000,0.000,0.0,0,0.0,2
197706,212060,--,0.000,0.000,0.000,0.0,0,0.0,2
197706,212060,--,0.000,0.000,0.000,0.0,0,0.0,2
197711,212063,--,0.000,0.000,0.000,0.0,0,0.0,2
197709,212060,--,0.000,0.000,0.000,0.0,0,0.0,2
197705,212053,--,0.000,0.000,0.000,0.0,0,0.0,2
197708,212045,--,0.000,0.000,0.000,0.0,0,0.0,2
197714,212054,--,0.000,0.000,0.000,0.0,0,0.0,2
197708,212052,--,0.000,0.000,0.000,0.0,0,0.0,2
197710,212045,--,0.000,0.000,0.000,0.0,0,0.0,2
197720,212043,--,0.000,0.000,0.000,0.0,0,0.0,2
197721,212051,--,0.000,0.000,0.000,0.0,0,0.0,2
197722,212053,--,0.000,0.000,0.000,0.0,0,0.0,2
197725,212049,--,0.000,0.000,0.000,0.0,0,0.0,2
197725,212058,--,0.000,0.000,0.000,0.0,0,0.0,2
197730,212049,--,0.000,0.000,0.000,0.0,0,0.0,2
197742,212058,--,0.000,0.000,0.000,0.0,0,0.0,2
197734,212056,--,0.000,0.000,0.000,0.0,0,0.0,2
197732,212056,--,0.000,0.000,0.000,0.0,0,0.0,2
197737,212053,--,0.000,0.000,0.000,0.0,0,0.0,2
197735,212053,--,0.000,0.000,0.000,0.0,0,0.0,2
197740,212055,--,0.000,0.000,0.000,0.0,0,0.0,2
197731,212051,--,0.000,0.000,0.000,0.0,0,0.0,2
197737,212049,--,0.000,0.000,0.000,0.0,0,0.0,2
197729,212048,--,0.000,0.000,0.000,0.0,0,0.0,2
197732,212041,--,0.000,0.000,0.000,0.0,0,0.0,2
197717,212039,--,0.000,0.000,0.000,0.0,0,0.0,2
197708,212040,--,0.000,0.000,0.000,0.0,0,0.0,2
197685,212031,--,0.000,0.000,0.000,0.0,0,0.0,2
197663,212022,--,0.000,0.000,0.000,0.0,0,0.0,2
197634,212007,--,0.000,0.000,0.000,0.0,0,0.0,2
197617,211998,--,0.000,0.000,0.000,0.0,0,0.0,2
197598,211991,--,0.000,0.000,0.000,0.0,0,0.0,2
197574,211976,--,0.000,0.000,0.000,0.0,0,0.0,2
197548,211962,--,0.000,0.000,0.000,0.0,0,0.0,2
197531,211952,--,0.000,0.000,0.000,0.0,0,0.0,2
197509,211949,--,0.000,0.000,0.000,0.0,0,0.0,2
197505,211940,--,0.000,0.000,0.000,0.0,0,0.0,2
197488,211941,--,0.000,0.000,0.000,0.0,0,0.0,2
197482,211937,--,0.000,0.000,0.000,0.0,0,0.0,2
197479,211935,--,0.000,0.000,0.000,0.0,0,0.0,2
197475,211927,--,0.000,0.000,0.000,0.0,0,0.0,2
197472,211931,--,0.000,0.000,0.000,0.0,0,0.0,2
197471,211929,--,0.000,0.000,0.000,0.0,0,0.0,2
197476,211935,--,0.000,0.000,0.000,0.0,0,0.0,2
197481,211948,--,0.000,0.000,0.000,0.0,0,0.0,2
197481,211941,--,0.000,0.000,0.000,0.0,0,0.0,2
197489,211944,--,0.000,0.000,0.000,0.0,0,0.0,2
197487,211942,--,0.000,0.000,0.000,0.0,0,0.0,2
197501,211949,--,0.000,0.000,0.000,0.0,0,0.0,2
197499,211946,--,0.000,0.000,0.000,0.0,0,0.0,2
197506,211948,--,0.000,0.000,0.000,0.0,0,0.0,2
197504,211951,--,0.000,0.000,0.000,0.0,0,0.0,2
197514,211951,--,0.000,0.000,0.000,0.0,0,0.0,2
197518,211950,--,0.000,0.000,0.000,0.0,0,0.0,2
197527,211957,--,0.000,0.000,0.000,0.0,0,0.0,2
197527,211960,--,0.000,0.000,0.000,0.0,0,0.0,2
197533,211952,--,0.000,0.000,0.000,0.0,0,0.0,2
197535,211961,--,0.000,0.000,0.000,0.0,0,0.0,2
197544,211976,--,0.000,0.000,0.000,0.0,0,0.0,2
197545,211967,--,0.000,0.000,0.000,0.0,0,0.0,2
197551,211973,--,0.000,0.000,0.000,0.0,0,0.0,2
197550,211974,--,0.000,0.000,0.000,0.0,0,0.0,2
197556,211975,--,0.000,0.000,0.000,0.0,0,0.0,2
197561,211981,--,0.000,0.000,0.000,0.0,0,0.0,2
197561,211983,--,0.000,0.000,0.000,0.0,0,0.0,2
197560,211977,--,0.000,0.000,0.000,0.0,0,0.0,2
197567,211987,--,0.000,0.000,0.000,0.0,0,0.0,2
197556,211976,--,0.000,0.000,0.000,0.0,0,0.0,2
197567,211982,--,0.000,0.000,0.000,0.0,0,0.0,2
197579,211982,--,0.000,0.000,0.000,0.0,0,0.0,2
197573,211985,--,0.000,0.000,0.000,0.0,0,0.0,2
197576,211981,--,0.000,0.000,0.000,0.0,0,0.0,2
197582,211981,--,0.000,0.000,0.000,0.0,0,0.0,2
197583,211981,--,0.000,0.000,0.000,0.0,0,0.0,2
197593,211991,--,0.000,0.000,0.000,0.0,0,0.0,2
197590,211983,--,0.000,0.000,0.000,0.0,0,0.0,2
197598,211993,--,0.000,0.000,0.000,0.0,0,0.0,2
197601,211992,--,0.000,0.000,0.000,0.0,0,0.0,2
197605,211999,--,0.000,0.000,0.000,0.0,0,0.0,2
197600,211996,--,0.000,0.000,0.000,0.0,0,0.0,2
197617,211995,--,0.000,0.000,0.000,0.0,0,0.0,2
197611,211989,--,0.000,0.000,0.000,0.0,0,0.0,2
197610,211987,--,0.000,0.000,0.000,0.0,0,0.0,2
197609,211992,--,0.000,0.000,0.000,0.0,0,0.0,2
197615,212000,--,0.000,0.000,0.000,0.0,0,0.0,2
197609,211998,--,0.000,0.000,0.000,0.0,0,0.0,2
197617,212002,--,0.000,0.000,0.000,0.0,0,0.0,2
197614,211989,--,0.000,0.000,0.000,0.0,0,0.0,2
197609,211996,--,0.000,0.000,0.000,0.0,0,0.0,2
197605,211991,--,0.000,0.000,0.000,0.0,0,0.0,2
197608,211999,--,0.000,0.000,0.000,0.0,0,0.0,2
197605,211985,--,0.000,0.000,0.000,0.0,0,0.0,2
197604,211988,--,0.000,0.000,0.000,0.0,0,0.0,2
197598,211990,--,0.000,0.000,0.000,0.0,0,0.0,2
197609,211993,--,0.000,0.000,0.000,0.0,0,0.0,2
197602,211992,--,0.000,0.000,0.000,0.0,0,0.0,2
197599,211994,--,0.000,0.000,0.000,0.0,0,0.0,2
197599,211984,--,0.000,0.000,0.000,0.0,0,0.0,2
197605,211987,--,0.000,0.000,0.000,0.0,0,0.0,2
197608,211986,--,0.000,0.000,0.000,0.0,0,0.0,2
197605,211992,--,0.000,0.000,0.000,0.0,0,0.0,2
197608,211983,--,0.000,0.000,0.000,0.0,0,0.0,2
197614,211986,--,0.000,0.000,0.000,0.0,0,0.0,2
197611,211989,--,0.000,0.000,0.000,0.0,0,0.0,2
197612,211990,--,0.000,0.000,0.000,0.0,0,0.0,2
197609,211981,--,0.000,0.000,0.000,0.0,0,0.0,2
197613,211983,--,0.000,0.000,0.000,0.0,0,0.0,2
197612,211984,--,0.000,0.000,0.000,0.0,0,0.0,2
197622,211988,--,0.000,0.000,0.000,0.0,0,0.0,2
197628,211984,--,0.000,0.000,0.000,0.0,0,0.0,2
197621,211992,--,0.000,0.000,0.000,0.0,0,0.0,2
197627,211988,--,0.000,0.000,0.000,0.0,0,0.0,2
197629,211989,--,0.000,0.000,0.000,0.0,0,0.0,2
197630,211994,--,0.000,0.000,0.000,0.0,0,0.0,2
197635,211993,--,0.000,0.000,0.000,0.0,0,0.0,2
197630,211989,--,0.000,0.000,0.000,0.0,0,0.0,2
197639,211998,--,0.000,0.000,0.000,0.0,0,0.0,2
197637,211985,--,0.000,0.000,0.000,0.0,0,0.0,2
197649,211992,--,0.000,0.000,0.000,0.0,0,0.0,2
197645,211995,--,0.000,0.000,0.000,0.0,0,0.0,2
197647,211997,--,0.000,0.000,0.000,0.0,0,0.0,2
197647,211990,--,0.000,0.000,0.000,0.0,0,0.0,2
197648,211999,--,0.000,0.000,0.000,0.0,0,0.0,2
197658,211991,--,0.000,0.000,0.000,0.0,0,0.0,2
197659,211996,--,0.000,0.000,0.000,0.0,0,0.0,2
197655,211984,--,0.000,0.000,0.000,0.0,0,0.0,2
197658,211992,--,0.000,0.000,0.000,0.0,0,0.0,2
197646,211986,--,0.000,0.000,0.000,0.0,0,0.0,2
197659,211986,--,0.000,0.000,0.000,0.0,0,0.0,2
197661,211984,--,0.000,0.000,0.000,0.0,0,0.0,2
197661,211996,--,0.000,0.000,0.000,0.0,0,0.0,2
197661,211988,--,0.000,0.000,0.000,0.0,0,0.0,2
197672,211999,--,0.000,0.000,0.000,0.0,0,0.0,2
197667,211994,--,0.000,0.000,0.000,0.0,0,0.0,2
197675,211990,--,0.000,0.000,0.000,0.0,0,0.0,2
197671,211988,--,0.000,0.000,0.000,0.0,0,0.0,2
197669,211992,--,0.000,0.000,0.000,0.0,0,0.0,2
197669,211979,--,0.000,0.000,0.000,0.0,0,0.0,2
197674,211988,--,0.000,0.000,0.000,0.0,0,0.0,2
197665,211991,--,0.000,0.000,0.000,0.0,0,0.0,2
197676,211990,--,0.000,0.000,0.000,0.0,0,0.0,2
197674,211987,--,0.000,0.000,0.000,0.0,0,0.0,2
197684,211991,--,0.000,0.000,0.000,0.0,0,0.0,2
197669,211986,--,0.000,0.000,0.000,0.0,0,0.0,2
197671,211993,--,0.000,0.000,0.000,0.0,0,0.0,2
197674,211980,--,0.000,0.000,0.000,0.0,0,0.0,2
197678,211986,--,0.000,0.000,0.000,0.0,0,0.0,2
197683,211984,--,0.000,0.000,0.000,0.0,0,0.0,2
197685,211987,--,0.000,0.000,0.000,0.0,0,0.0,2
197685,211986,--,0.000,0.000,0.000,0.0,0,0.0,2
197690,211996,--,0.000,0.000,0.000,0.0,0,0.0,2
197690,211990,--,0.000,0.000,0.000,0.0,0,0.0,2
197692,211992,--,0.000,0.000,0.000,0.0,0,0.0,2
197695,211984,--,0.000,0.000,0.000,0.0,0,0.0,2
197699,211993,--,0.000,0.000,0.000,0.0,0,0.0,2
197702,211991,--,0.000,0.000,0.000,0.0,0,0.0,2
197706,212002,--,0.000,0.000,0.000,0.0,0,0.0,2
197699,211996,--,0.000,0.000,0.000,0.0,0,0.0,2
197700,211992,--,0.000,0.000,0.000,0.0,0,0.0,2
197701,211991,--,0.000,0.000,0.000,0.0,0,0.0,2
197700,211990,--,0.000,0.000,0.000,0.0,0,0.0,2
197709,211991,--,0.000,0.000,0.000,0.0,0,0.0,2
197708,211995,--,0.000,0.000,0.000,0.0,0,0.0,2
197699,211985,--,0.000,0.000,0.000,0.0,0,0.0,2
197705,211992,--,0.000,0.000,0.000,0.0,0,0.0,2
197705,211986,--,0.000,0.000,0.000,0.0,0,0.0,2
197712,211993,--,0.000,0.000,0.000,0.0,0,0.0,2
197707,211996,--,0.000,0.000,0.000,0.0,0,0.0,2
197715,211995,--,0.000,0.000,0.000,0.0,0,0.0,2
197712,211991,--,0.000,0.000,0.000,0.0,0,0.0,2
197717,211993,--,0.000,0.000,0.000,0.0,0,0.0,2
197717,211993,--,0.000,0.000,0.000,0.0,0,0.0,2
197721,211997,--,0.000,0.000,0.000,0.0,0,0.0,2
197717,211997,--,0.000,0.000,0.000,0.0,0,0.0,2
197724,211995,--,0.000,0.000,0.000,0.0,0,0.0,2
197729,211999,--,0.000,0.000,0.000,0.0,0,0.0,2
197727,212002,--,0.000,0.000,0.000,0.0,0,0.0,2
197723,211996,--,0.000,0.000,0.000,0.0,0,0.0,2
197725,211992,--,0.000,0.000,0.000,0.0,0,0.0,2
197732,211998,--,0.000,0.000,0.000,0.0,0,0.0,2
197738,212003,--,0.000,0.000,0.000,0.0,0,0.0,2
197733,212003,--,0.000,0.000,0.000,0.0,0,0.0,2
197738,212007,--,0.000,0.000,0.000,0.0,0,0.0,2
197739,211999,--,0.000,0.000,0.000,0.0,0,0.0,2
197739,211995,--,0.000,0.000,0.000,0.0,0,0.0,2
197745,211999,--,0.000,0.000,0.000,0.0,0,0.0,2
197752,212013,--,0.000,0.000,0.000,0.0,0,0.0,2
197755,212007,--,0.000,0.000,0.000,0.0,0,0.0,2
197745,212008,--,0.000,0.000,0.000,0.0,0,0.0,2
197757,212004,--,0.000,0.000,0.000,0.0,0,0.0,2
197760,212009,--,0.000,0.000,0.000,0.0,0,0.0,2
197763,212010,--,0.000,0.000,0.000,0.0,0,0.0,2
197759,212012,--,0.000,0.000,0.000,0.0,0,0.0,2
197762,212007,--,0.000,0.000,0.000,0.0,0,0.0,2
197772,212015,--,0.000,0.000,0.000,0.0,0,0.0,2
197765,212012,--,0.000,0.000,0.000,0.0,0,0.0,2
197776,212017,--,0.000,0.000,0.000,0.0,0,0.0,2
197772,212003,--,0.000,0.000,0.000,0.0,0,0.0,2
197775,212007,--,0.000,0.000,0.000,0.0,0,0.0,2
197769,212014,--,0.000,0.000,0.000,0.0,0,0.0,2
197778,212007,--,0.000,0.000,0.000,0.0,0,0.0,2
197788,212010,--,0.000,0.000,0.000,0.0,0,0.0,2
197782,212012,--,0.000,0.000,0.000,0.0,0,0.0,2
197785,212007,--,0.000,0.000,0.000,0.0,0,0.0,2
197782,212011,--,0.000,0.000,0.000,0.0,0,0.0,2
197790,212010,--,0.000,0.000,0.000,0.0,0,0.0,2
197776,212016,--,0.000,0.000,0.000,0.0,0,0.0,2
197776,212012,--,0.000,0.000,0.000,0.0,0,0.0,2
197771,212013,--,0.000,0.000,0.000,0.0,0,0.0,2
197753,212003,--,0.000,0.000,0.000,0.0,0,0.0,2
197738,211998,--,0.000,0.000,0.000,0.0,0,0.0,2
197721,211991,--,0.000,0.000,0.000,0.0,0,0.0,2
197702,211981,--,0.000,0.000,0.000,0.0,0,0.0,2
197688,211965,--,0.000,0.000,0.000,0.0,0,0.0,2
197662,211966,--,0.000,0.000,0.000,0.0,0,0.0,2
197648,211955,--,0.000,0.000,0.000,0.0,0,0.0,2
197631,211956,--,0.000,0.000,0.000,0.0,0,0.0,2
197609,211947,--,0.000,0.000,0.000,0.0,0,0.0,2
197588,211933,--,0.000,0.000,0.000,0.0,0,0.0,2
197579,211925,--,0.000,0.000,0.000,0.0,0,0.0,2
197562,211932,--,0.000,0.000,0.000,0.0,0,0.0,2
197560,211921,--,0.000,0.000,0.000,0.0,0,0.0,2
197551,211925,--,0.000,0.000,0.000,0.0,0,0.0,2
197555,211918,--,0.000,0.000,0.000,0.0,0,0.0,2
197540,211917,--,0.000,0.000,0.000,0.0,0,0.0,2
197538,211920,--,0.000,0.000,0.000,0.0,0,0.0,2
197538,211917,--,0.000,0.000,0.000,0.0,0,0.0,2
197544,211914,--,0.000,0.000,0.000,0.0,0,0.0,2
197547,211919,--,0.000,0.000,0.000,0.0,0,0.0,2
197550,211917,--,0.000,0.000,0.000,0.0,0,0.0,2
197549,211919,--,0.000,0.000,0.000,0.0,0,0.0,2
197559,211921,--,0.000,0.000,0.000,0.0,0,0.0,2
197560,211917,--,0.000,0.000,0.000,0.0,0,0.0,2
197563,211917,--,0.000,0.000,0.000,0.0,0,0.0,2
197568,211933,--,0.000,0.000,0.000,0.0,0,0.0,3
197572,211927,--,0.000,0.000,0.000,0.0,0,0.0,3
197577,211934,--,0.000,0.000,0.000,0.0,0,0.0,3
197580,211938,--,0.000,0.000,0.000,0.0,0,0.0,3
197588,211936,--,0.000,0.000,0.000,0.0,0,0.0,3
197592,211933,--,0.000,0.000,0.000,0.0,0,0.0,3
197606,211940,--,0.000,0.000,0.000,0.0,0,0.0,3
197598,211935,--,0.000,0.000,0.000,0.0,0,0.0,3
197602,211945,--,0.000,0.000,0.000,0.0,0,0.0,3
197604,211941,--,0.000,0.000,0.000,0.0,0,0.0,3
197612,211940,--,0.000,0.000,0.000,0.0,0,0.0,3
197616,211945,--,0.000,0.000,0.000,0.0,0,0.0,3
197611,211946,--,0.000,0.000,0.000,0.0,0,0.0,3
197620,211948,--,0.000,0.000,0.000,0.0,0,0.0,3
197618,211945,--,0.000,0.000,0.000,0.0,0,0.0,3
197617,211941,--,0.000,0.000,0.000,0.0,0,0.0,3
197618,211946,--,0.000,0.000,0.000,0.0,0,0.0,3
197626,211943,--,0.000,0.000,0.000,0.0,0,0.0,3
197627,211944,--,0.000,0.000,0.000,0.0,0,0.0,3
197632,211948,--,0.000,0.000,0.000,0.0,0,0.0,3
197628,211946,--,0.000,0.000,0.000,0.0,0,0.0,3
197626,211952,--,0.000,0.000,0.000,0.0,0,0.0,3
197642,211956,--,0.000,0.000,0.000,0.0,0,0.0,3
197646,211960,--,0.000,0.000,0.000,0.0,0,0.0,3
197644,211954,--,0.000,0.000,0.000,0.0,0,0.0,3
197651,211956,--,0.000,0.000,0.000,0.0,0,0.0,3
197652,211957,--,0.000,0.000,0.000,0.0,0,0.0,3
197648,211951,--,0.000,0.000,0.000,0.0,0,0.0,3
197650,211957,--,0.000,0.000,0.000,0.0,0,0.0,3
197650,211952,--,0.000,0.000,0.000,0.0,0,0.0,3
197653,211959,--,0.000,0.000,0.000,0.0,0,0.0,3
197658,211952,--,0.000,0.000,0.000,0.0,0,0.0,3
197653,211961,--,0.000,0.000,0.000,0.0,0,0.0,3
197647,211954,--,0.000,0.000,0.000,0.0,0,0.0,3
197650,211955,--,0.000,0.000,0.000,0.0,0,0.0,3
197654,211947,--,0.000,0.000,0.000,0.0,0,0.0,3
197641,211951,--,0.000,0.000,0.000,0.0,0,0.0,3
197646,211944,--,0.000,0.000,0.000,0.0,0,0.0,3
197646,211949,--,0.000,0.000,0.000,0.0,0,0.0,3
197647,211947,--,0.000,0.000,0.000,0.0,0,0.0,3
197651,211949,--,0.000,0.000,0.000,0.0,0,0.0,3
197648,211956,--,0.000,0.000,0.000,0.0,0,0.0,3
197646,211954,--,0.000,0.000,0.000,0.0,0,0.0,3
197646,211953,--,0.000,0.000,0.000,0.0,0,0.0,3
197648,211947,--,0.000,0.000,0.000,0.0,0,0.0,3
197654,211948,--,0.000,0.000,0.000,0.0,0,0.0,3
197649,211955,--,0.000,0.000,0.000,0.0,0,0.0,3
197655,211956,--,0.000,0.000,0.000,0.0,0,0.0,3
197660,211952,--,0.000,0.000,0.000,0.0,0,0.0,3
197650,211953,--,0.000,0.000,0.000,0.0,0,0.0,3
197666,211953,--,0.000,0.000,0.000,0.0,0,0.0,3
197651,211957,--,0.000,0.000,0.000,0.0,0,0.0,3
197652,211951,--,0.000,0.000,0.000,0.0,0,0.0,3
197651,211955,--,0.000,0.000,0.000,0.0,0,0.0,3
197668,211958,--,0.000,0.000,0.000,0.0,0,0.0,3
197674,211964,--,0.000,0.000,0.000,0.0,0,0.0,3
197674,211958,--,0.000,0.000,0.000,0.0,0,0.0,3
197679,211963,--,0.000,0.000,0.000,0.0,0,0.0,3
197673,211960,--,0.000,0.000,0.000,0.0,0,0.0,3
197684,211962,--,0.000,0.000,0.000,0.0,0,0.0,3
197682,211958,--,0.000,0.000,0.000,0.0,0,0.0,3
197689,211963,--,0.000,0.000,0.000,0.0,0,0.0,3
197690,211961,--,0.000,0.000,0.000,0.0,0,0.0,3
197686,211953,--,0.000,0.000,0.000,0.0,0,0.0,3
197688,211959,--,0.000,0.000,0.000,0.0,0,0.0,3
197695,211963,--,0.000,0.000,0.000,0.0,0,0.0,3
197699,211956,--,0.000,0.000,0.000,0.0,0,0.0,3
197701,211965,--,0.000,0.000,0.000,0.0,0,0.0,3
197706,211957,--,0.000,0.000,0.000,0.0,0,0.0,3
197707,211964,--,0.000,0.000,0.000,0.0,0,0.0,3
197707,211963,--,0.000,0.000,0.000,0.0,0,0.0,3
197717,211968,--,0.000,0.000,0.000,0.0,0,0.0,3
197720,211972,--,0.000,0.000,0.000,0.0,0,0.0,3
197721,211972,--,0.000,0.000,0.000,0.0,0,0.0,3
197727,211968,--,0.000,0.000,0.000,0.0,0,0.0,3
197735,211981,--,0.000,0.000,0.000,0.0,0,0.0,3
197738,211990,--,0.000,0.000,0.000,0.0,0,0.0,3
197738,211979,--,0.000,0.000,0.000,0.0,0,0.0,3
197733,211981,--,0.000,0.000,0.000,0.0,0,0.0,3
197741,211982,--,0.000,0.000,0.000,0.0,0,0.0,3
197740,211986,--,0.000,0.000,0.000,0.0,0,0.0,3
197747,211986,--,0.000,0.000,0.000,0.0,0,0.0,3
197744,211984,--,0.000,0.000,0.000,0.0,0,0.0,3
197749,211994,--,0.000,0.000,0.000,0.0,0,0.0,3
197757,211977,--,0.000,0.000,0.000,0.0,0,0.0,3
197758,211986,--,0.000,0.000,0.000,0.0,0,0.0,3
197749,211989,--,0.000,0.000,0.000,0.0,0,0.0,3
197763,211990,--,0.000,0.000,0.000,0.0,0,0.0,3
197758,211976,--,0.000,0.000,0.000,0.0,0,0.0,3
197768,211992,--,0.000,0.000,0.000,0.0,0,0.0,3
197769,211991,--,0.000,0.000,0.000,0.0,0,0.0,3
197769,211993,--,0.000,0.000,0.000,0.0,0,0.0,3
197767,211984,--,0.000,0.000,0.000,0.0,0,0.0,3
197773,211990,--,0.000,0.000,0.000,0.0,0,0.0,3
197770,211986,--,0.000,0.000,0.000,0.0,0,0.0,3
197772,211990,--,0.000,0.000,0.000,0.0,0,0.0,3
197776,211993,--,0.000,0.000,0.000,0.0,0,0.0,3
197776,211994,--,0.000,0.000,0.000,0.0,0,0.0,3
197779,211991,--,0.000,0.000,0.000,0.0,0,0.0,3
197784,211993,--,0.000,0.000,0.000,0.0,0,0.0,3
197777,211994,--,0.000,0.000,0.000,0.0,0,0.0,3
197783,211991,--,0.000,0.000,0.000,0.0,0,0.0,3
197780,211985,--,0.000,0.000,0.000,0.0,0,0.0,3
197792,211994,--,0.000,0.000,0.000,0.0,0,0.0,3
197780,211995,--,0.000,0.000,0.000,0.0,0,0.0,3
197793,211996,--,0.000,0.000,0.000,0.0,0,0.0,3
197794,211996,--,0.000,0.000,0.000,0.0,0,0.0,3
197801,212001,--,0.000,0.000,0.000,0.0,0,0.0,3
197798,211994,--,0.000,0.000,0.000,0.0,0,0.0,3
197808,212002,--,0.000,0.000,0.000,0.0,0,0.0,3
197799,211998,--,0.000,0.000,0.000,0.0,0,0.0,3
197800,212005,--,0.000,0.000,0.000,0.0,0,0.0,3
197798,211994,--,0.000,0.000,0.000,0.0,0,0.0,3
197810,212008,--,0.000,0.000,0.000,0.0,0,0.0,3
197800,212001,--,0.000,0.000,0.000,0.0,0,0.0,3
197815,212004,--,0.000,0.000,0.000,0.0,0,0.0,3
197811,212009,--,0.000,0.000,0.000,0.0,0,0.0,3
197823,212014,--,0.000,0.000,0.000,0.0,0,0.0,3
197811,212006,--,0.000,0.000,0.000,0.0,0,0.0,3
197824,212012,--,0.000,0.000,0.000,0.0,0,0.0,3
197827,212019,--,0.000,0.000,0.000,0.0,0,0.0,3
197828,212015,--,0.000,0.000,0.000,0.0,0,0.0,3
197828,212014,--,0.000,0.000,0.000,0.0,0,0.0,3
197835,212011,--,0.000,0.000,0.000,0.0,0,0.0,3
197833,212018,--,0.000,0.000,0.000,0.0,0,0.0,3
197837,212013,--,0.000,0.000,0.000,0.0,0,0.0,3
197831,212015,--,0.000,0.000,0.000,0.0,0,0.0,3
197839,212017,--,0.000,0.000,0.000,0.0,0,0.0,3
197844,212012,--,0.000,0.000,0.000,0.0,0,0.0,3
197847,212015,--,0.000,0.000,0.000,0.0,0,0.0,3
197839,212012,--,0.000,0.000,0.000,0.0,0,0.0,3
197845,212017,--,0.000,0.000,0.000,0.0,0,0.0,3
197844,212014,--,0.000,0.000,0.000,0.0,0,0.0,3
197852,212019,--,0.000,0.000,0.000,0.0,0,0.0,3
197852,212014,--,0.000,0.000,0.000,0.0,0,0.0,3
197855,212019,--,0.000,0.000,0.000,0.0,0,0.0,3
197855,212018,--,0.000,0.000,0.000,0.0,0,0.0,3
197868,212027,--,0.000,0.000,0.000,0.0,0,0.0,3
197862,212020,--,0.000,0.000,0.000,0.0,0,0.0,3
197864,212020,--,0.000,0.000,0.000,0.0,0,0.0,3
197863,212017,--,0.000,0.000,0.000,0.0,0,0.0,3
197874,212022,--,0.000,0.000,0.000,0.0,0,0.0,3
197864,212021,--,0.000,0.000,0.000,0.0,0,0.0,3
197875,212024,--,0.000,0.000,0.000,0.0,0,0.0,3
197869,212024,--,0.000,0.000,0.000,0.0,0,0.0,3
197874,212025,--,0.000,0.000,0.000,0.0,0,0.0,3
197869,212012,--,0.000,0.000,0.000,0.0,0,0.0,3
197864,212015,--,0.000,0.000,0.000,0.0,0,0.0,3
197867,212012,--,0.000,0.000,0.000,0.0,0,0.0,3
197866,212014,--,0.000,0.000,0.000,0.0,0,0.0,3
197855,212015,--,0.000,0.000,0.000,0.0,0,0.0,3
197841,212004,--,0.000,0.000,0.000,0.0,0,0.0,3
197829,212003,--,0.000,0.000,0.000,0.0,0,0.0,3
197813,211992,--,0.000,0.000,0.000,0.0,0,0.0,3
197788,211979,--,0.000,0.000,0.000,0.0,0,0.0,3
197778,211979,--,0.000,0.000,0.000,0.0,0,0.0,3
197758,211962,--,0.000,0.000,0.000,0.0,0,0.0,3
197729,211958,--,0.000,0.000,0.000,0.0,0,0.0,3
197712,211950,--,0.000,0.000,0.000,0.0,0,0.0,3
197696,211951,--,0.000,0.000,0.000,0.0,0,0.0,3
197687,211944,--,0.000,0.000,0.000,0.0,0,0.0,3
197678,211935,--,0.000,0.000,0.000,0.0,0,0.0,3
197658,211928,--,0.000,0.000,0.000,0.0,0,0.0,3
197646,211930,--,0.000,0.000,0.000,0.0,0,0.0,3
197639,211922,--,0.000,0.000,0.000,0.0,0,0.0,3
197637,211924,--,0.000,0.000,0.000,0.0,0,0.0,3
197634,211917,--,0.000,0.000,0.000,0.0,0,0.0,3
197641,211925,--,0.000,0.000,0.000,0.0,0,0.0,3
197637,211918,--,0.000,0.000,0.000,0.0,0,0.0,3
197647,211929,--,0.000,0.000,0.000,0.0,0,0.0,3
197646,211921,--,0.000,0.000,0.000,0.0,0,0.0,3
197650,211936,--,0.000,0.000,0.000,0.0,0,0.0,3
197656,211925,--,0.000,0.000,0.000,0.0,0,0.0,3
197657,211929,--,0.000,0.000,0.000,0.0,0,0.0,3
197664,211935,--,0.000,0.000,0.000,0.0,0,0.0,3
197665,211942,--,0.000,0.000,0.000,0.0,0,0.0,3
197672,211931,--,0.000,0.000,0.000,0.0,0,0.0,3
197679,211941,--,0.000,0.000,0.000,0.0,0,0.0,3
197688,211939,--,0.000,0.000,0.000,0.0,0,0.0,3
197698,211948,--,0.000,0.000,0.000,0.0,0,0.0,3
197695,211951,--,0.000,0.000,0.000,0.0,0,0.0,3
197699,211950,--,0.000,0.000,0.000,0.0,0,0.0,3
197700,211948,--,0.000,0.000,0.000,0.0,0,0.0,3
197714,211956,--,0.000,0.000,0.000,0.0,0,0.0,3
197706,211953,--,0.000,0.000,0.000,0.0,0,0.0,3
197711,211952,--,0.000,0.000,0.000,0.0,0,0.0,3
197721,211951,--,0.000,0.000,0.000,0.0,0,0.0,3
197723,211955,--,0.000,0.000,0.000,0.0,0,0.0,3
197722,211956,--,0.000,0.000,0.000,0.0,0,0.0,3
197720,211957,--,0.000,0.000,0.000,0.0,0,0.0,3
197727,211960,--,0.000,0.000,0.000,0.0,0,0.0,3
197720,211959,--,0.000,0.000,0.000,0.0,0,0.0,3
197721,211947,--,0.000,0.000,0.000,0.0,0,0.0,3
197730,211948,--,0.000,0.000,0.000,0.0,0,0.0,3
197736,211956,--,0.000,0.000,0.000,0.0,0,0.0,3
197740,211960,--,0.000,0.000,0.000,0.0,0,0.0,3
197740,211959,--,0.000,0.000,0.000,0.0,0,0.0,3
197742,211961,--,0.000,0.000,0.000,0.0,0,0.0,3
197742,211960,--,0.000,0.000,0.000,0.0,0,0.0,3
197749,211967,--,0.000,0.000,0.000,0.0,0,0.0,3
197748,211965,--,0.000,0.000,0.000,0.0,0,0.0,3
197757,211965,--,0.000,0.000,0.000,0.0,0,0.0,3
197751,211961,--,0.000,0.000,0.000,0.0,0,0.0,3
197756,211971,--,0.000,0.000,0.000,0.0,0,0.0,3
197755,211964,--,0.000,0.000,0.000,0.0,0,0.0,3
197756,211960,--,0.000,0.000,0.000,0.0,0,0.0,3
197757,211969,--,0.000,0.000,0.000,0.0,0,0.0,3
197760,211965,--,0.000,0.000,0.000,0.0,0,0.0,3
197755,211961,--,0.000,0.000,0.000,0.0,0,0.0,3
197763,211965,--,0.000,0.000,0.000,0.0,0,0.0,3
197754,211963,--,0.000,0.000,0.000,0.0,0,0.0,3
197759,211959,--,0.000,0.000,0.000,0.0,0,0.0,3
197759,211960,--,0.000,0.000,0.000,0.0,0,0.0,3
197753,211950,--,0.000,0.000,0.000,0.0,0,0.0,3
197750,211958,--,0.000,0.000,0.000,0.0,0,0.0,3
197754,211958,--,0.000,0.000,0.000,0.0,0,0.0,3
197747,211953,--,0.000,0.000,0.000,0.0,0,0.0,3
197742,211960,--,0.000,0.000,0.000,0.0,0,0.0,3
197747,211951,--,0.000,0.000,0.000,0.0,0,0.0,3
197745,211950,--,0.000,0.000,0.000,0.0,0,0.0,3
197741,211949,--,0.000,0.000,0.000,0.0,0,0.0,3
197745,211948,--,0.000,0.000,0.000,0.0,0,0.0,3
197744,211952,--,0.000,0.000,0.000,0.0,0,0.0,3
197758,211958,--,0.000,0.000,0.000,0.0,0,0.0,3
197756,211952,--,0.000,0.000,0.000,0.0,0,0.0,3
197756,211964,--,0.000,0.000,0.000,0.0,0,0.0,3
197749,211954,--,0.000,0.000,0.000,0.0,0,0.0,3
197760,211952,--,0.000,0.000,0.000,0.0,0,0.0,3
197765,211955,--,0.000,0.000,0.000,0.0,0,0.0,3
197759,211962,--,0.000,0.000,0.000,0.0,0,0.0,3
197765,211953,--,0.000,0.000,0.000,0.0,0,0.0,3
197768,211962,--,0.000,0.000,0.000,0.0,0,0.0,3
197768,211949,--,0.000,0.000,0.000,0.0,0,0.0,3
197765,211952,--,0.000,0.000,0.000,0.0,0,0.0,3
197768,211953,--,0.000,0.000,0.000,0.0,0,0.0,3
197781,211959,--,0.000,0.000,0.000,0.0,0,0.0,3
197789,211959,--,0.000,0.000,0.000,0.0,0,0.0,3
197790,211964,--,0.000,0.000,0.000,0.0,0,0.0,3
197795,211964,--,0.000,0.000,0.000,0.0,0,0.0,3
197801,211965,--,0.000,0.000,0.000,0.0,0,0.0,3
197802,211966,--,0.000,0.000,0.000,0.0,0,0.0,3
197803,211970,--,0.000,0.000,0.000,0.0,0,0.0,3
197809,211974,--,0.000,0.000,0.000,0.0,0,0.0,3
197819,211972,--,0.000,0.000,0.000,0.0,0,0.0,3
197819,211976,--,0.000,0.000,0.000,0.0,0,0.0,3
197819,211977,--,0.000,0.000,0.000,0.0,0,0.0,3
197820,211978,--,0.000,0.000,0.000,0.0,0,0.0,3
197826,211981,--,0.000,0.000,0.000,0.0,0,0.0,3
197839,211983,--,0.000,0.000,0.000,0.0,0,0.0,3
197836,211979,--,0.000,0.000,0.000,0.0,0,0.0,3
197831,211978,--,0.000,0.000,0.000,0.0,0,0.0,3
197846,211987,--,0.000,0.000,0.000,0.0,0,0.0,3
197850,211990,--,0.000,0.000,0.000,0.0,0,0.0,3
197847,211992,--,0.000,0.000,0.000,0.0,0,0.0,3
197849,211990,--,0.000,0.000,0.000,0.0,0,0.0,3
197855,211987,--,0.000,0.000,0.000,0.0,0,0.0,3
197856,211995,--,0.000,0.000,0.000,0.0,0,0.0,3
197848,211986,--,0.000,0.000,0.000,0.0,0,0.0,3
197854,211993,--,0.000,0.000,0.000,0.0,0,0.0,3
197859,211989,--,0.000,0.000,0.000,0.0,0,0.0,3
197862,211994,--,0.000,0.000,0.000,0.0,0,0.0,3
197863,211991,--,0.000,0.000,0.000,0.0,0,0.0,3
197860,211989,--,0.000,0.000,0.000,0.0,0,0.0,3
197860,211984,--,0.000,0.000,0.000,0.0,0,0.0,3
197868,211985,--,0.000,0.000,0.000,0.0,0,0.0,3
197866,211992,--,0.000,0.000,0.000,0.0,0,0.0,3
197870,211988,--,0.000,0.000,0.000,0.0,0,0.0,3
197866,211992,--,0.000,0.000,0.000,0.0,0,0.0,3
197868,211998,--,0.000,0.000,0.000,0.0,0,0.0,3
197877,211998,--,0.000,0.000,0.000,0.0,0,0.0,3
197875,211992,--,0.000,0.000,0.000,0.0,0,0.0,3
197870,211989,--,0.000,0.000,0.000,0.0,0,0.0,3
197874,211987,--,0.000,0.000,0.000,0.0,0,0.0,3
197865,211986,--,0.000,0.000,0.000,0.0,0,0.0,3
197877,211989,--,0.000,0.000,0.000,0.0,0,0.0,3
197876,211992,--,0.000,0.000,0.000,0.0,0,0.0,3
197881,211987,--,0.000,0.000,0.000,0.0,0,0.0,3
197884,211987,--,0.000,0.000,0.000,0.0,0,0.0,3
197880,211997,--,0.000,0.000,0.000,0.0,0,0.0,3
197877,211995,--,0.000,0.000,0.000,0.0,0,0.0,3
197877,211998,--,0.000,0.000,0.000,0.0,0,0.0,3
197888,211998,--,0.000,0.000,0.000,0.0,0,0.0,3
197889,211995,--,0.000,0.000,0.000,0.0,0,0.0,3
197886,211999,--,0.000,0.000,0.000,0.0,0,0.0,3
197888,212000,--,0.000,0.000,0.000,0.0,0,0.0,3
197888,211989,--,0.000,0.000,0.000,0.0,0,0.0,3
197889,211988,--,0.000,0.000,0.000,0.0,0,0.0,3
197890,211984,--,0.000,0.000,0.000,0.0,0,0.0,3
197901,211993,--,0.000,0.000,0.000,0.0,0,0.0,3
197897,211999,--,0.000,0.000,0.000,0.0,0,0.0,3
197902,212004,--,0.000,0.000,0.000,0.0,0,0.0,3
197897,211998,--,0.000,0.000,0.000,0.0,0,0.0,3
197903,211999,--,0.000,0.000,0.000,0.0,0,0.0,3
197902,211998,--,0.000,0.000,0.000,0.0,0,0.0,3
197904,212007,--,0.000,0.000,0.000,0.0,0,0.0,3
197908,211998,--,0.000,0.000,0.000,0.0,0,0.0,3
197909,211999,--,0.000,0.000,0.000,0.0,0,0.0,3
197909,211995,--,0.000,0.000,0.000,0.0,0,0.0,3
197906,212003,--,0.000,0.000,0.000,0.0,0,0.0,3
197910,211999,--,0.000,0.000,0.000,0.0,0,0.0,3
197915,211991,--,0.000,0.000,0.000,0.0,0,0.0,3
197913,211996,--,0.000,0.000,0.000,0.0,0,0.0,3
197911,211998,--,0.000,0.000,0.000,0.0,0,0.0,3
197913,211993,--,0.000,0.000,0.000,0.0,0,0.0,3
197924,211998,--,0.000,0.000,0.000,0.0,0,0.0,3
197925,211996,--,0.000,0.000,0.000,0.0,0,0.0,3
197925,212002,--,0.000,0.000,0.000,0.0,0,0.0,3
197932,212001,--,0.000,0.000,0.000,0.0,0,0.0,3
197941,212003,--,0.000,0.000,0.000,0.0,0,0.0,3
197933,212002,--,0.000,0.000,0.000,0.0,0,0.0,3
197944,212008,--,0.000,0.000,0.000,0.0,0,0.0,3
197943,212011,--,0.000,0.000,0.000,0.0,0,0.0,3
197950,212007,--,0.000,0.000,0.000,0.0,0,0.0,3
197949,212003,--,0.000,0.000,0.000,0.0,0,0.0,3
197947,212001,--,0.000,0.000,0.000,0.0,0,0.0,3
197945,212008,--,0.000,0.000,0.000,0.0,0,0.0,3
197945,212008,--,0.000,0.000,0.000,0.0,0,0.0,3
197952,212006,--,0.000,0.000,0.000,0.0,0,0.0,3
197950,212008,--,0.000,0.000,0.000,0.0,0,0.0,3
197947,212003,--,0.000,0.000,0.000,0.0,0,0.0,3
197937,211999,--,0.000,0.000,0.000,0.0,0,0.0,3
197929,212000,--,0.000,0.000,0.000,0.0,0,0.0,3
197915,211994,--,0.000,0.000,0.000,0.0,0,0.0,3
197894,211977,--,0.000,0.000,0.000,0.0,0,0.0,3
197875,211973,--,0.000,0.000,0.000,0.0,0,0.0,3
197857,211968,--,0.000,0.000,0.000,0.0,0,0.0,3
197835,211963,--,0.000,0.000,0.000,0.0,0,0.0,3
197809,211945,--,0.000,0.000,0.000,0.0,0,0.0,3
197797,211939,--,0.000,0.000,0.000,0.0,0,0.0,3
197776,211930,--,0.000,0.000,0.000,0.0,0,0.0,3
197763,211930,--,0.000,0.000,0.000,0.0,0,0.0,3
197742,211920,--,0.000,0.000,0.000,0.0,0,0.0,3
197736,211910,--,0.000,0.000,0.000,0.0,0,0.0,3
197718,211907,--,0.000,0.000,0.000,0.0,0,0.0,3
197712,211898,--,0.000,0.000,0.000,0.0,0,0.0,3
197703,211900,--,0.000,0.000,0.000,0.0,0,0.0,3
197702,211902,--,0.000,0.000,0.000,0.0,0,0.0,3
197699,211900,--,0.000,0.000,0.000,0.0,0,0.0,3
197703,211896,--,0.000,0.000,0.000,0.0,0,0.0,3
197694,211897,--,0.000,0.000,0.000,0.0,0,0.0,3
197702,211903,--,0.000,0.000,0.000,0.0,0,0.0,3
197700,211902,--,0.000,0.000,0.000,0.0,0,0.0,3
197708,211908,--,0.000,0.000,0.000,0.0,0,0.0,3
197714,211909,--,0.000,0.000,0.000,0.0,0,0.0,3
197720,211913,--,0.000,0.000,0.000,0.0,0,0.0,3
197717,211912,--,0.000,0.000,0.000,0.0,0,0.0,3
197731,211914,--,0.000,0.000,0.000,0.0,0,0.0,3
197730,211917,--,0.000,0.000,0.000,0.0,0,0.0,3
197737,211923,--,0.000,0.000,0.000,0.0,0,0.0,3
197734,211914,--,0.000,0.000,0.000,0.0,0,0.0,3
197749,211924,--,0.000,0.000,0.000,0.0,0,0.0,3
197746,211926,--,0.000,0.000,0.000,0.0,0,0.0,3
197747,211929,--,0.000,0.000,0.000,0.0,0,0.0,3
197747,211924,--,0.000,0.000,0.000,0.0,0,0.0,3
197754,211931,--,0.000,0.000,0.000,0.0,0,0.0,3
197752,211919,--,0.000,0.000,0.000,0.0,0,0.0,3
197757,211923,--,0.000,0.000,0.000,0.0,0,0.0,3
197749,211918,--,0.000,0.000,0.000,0.0,0,0.0,3
197752,211922,--,0.000,0.000,0.000,0.0,0,0.0,3
197748,211920,--,0.000,0.000,0.000,0.0,0,0.0,3
197750,211924,--,0.000,0.000,0.000,0.0,0,0.0,3
197749,211917,--,0.000,0.000,0.000,0.0,0,0.0,3
197760,211909,--,0.000,0.000,0.000,0.0,0,0.0,3
197756,211919,--,0.000,0.000,0.000,0.0,0,0.0,3
197755,211918,--,0.000,0.000,0.000,0.0,0,0.0,3
197752,211914,--,0.000,0.000,0.000,0.0,0,0.0,3
197765,211920,--,0.000,0.000,0.000,0.0,0,0.0,3
197763,211920,--,0.000,0.000,0.000,0.0,0,0.0,3
197774,211925,--,0.000,0.000,0.000,0.0,0,0.0,3
197763,211925,--,0.000,0.000,0.000,0.0,0,0.0,3
197777,211926,--,0.000,0.000,0.000,0.0,0,0.0,3
197776,211918,--,0.000,0.000,0.000,0.0,0,0.0,3
197778,211922,--,0.000,0.000,0.000,0.0,0,0.0,3
197778,211924,--,0.000,0.000,0.000,0.0,0,0.0,3
197786,211931,--,0.000,0.000,0.000,0.0,0,0.0,3
197777,211921,--,0.000,0.000,0.000,0.0,0,0.0,3
197782,211919,--,0.000,0.000,0.000,0.0,0,0.0,3
197778,211922,--,0.000,0.000,0.000,0.0,0,0.0,3
197789,211925,--,0.000,0.000,0.000,0.0,0,0.0,3
197784,211931,--,0.000,0.000,0.000,0.0,0,0.0,3
197795,211930,--,0.000,0.000,0.000,0.0,0,0.0,3
197780,211922,--,0.000,0.000,0.000,0.0,0,0.0,3
197790,211928,--,0.000,0.000,0.000,0.0,0,0.0,3
197787,211927,--,0.000,0.000,0.000,0.0,0,0.0,3
197793,211928,--,0.000,0.000,0.000,0.0,0,0.0,3
197786,211923,--,0.000,0.000,0.000,0.0,0,0.0,3
197784,211925,--,0.000,0.000,0.000,0.0,0,0.0,3
197787,211916,--,0.000,0.000,0.000,0.0,0,0.0,3
197795,211927,--,0.000,0.000,0.000,0.0,0,0.0,3
197785,211924,--,0.000,0.000,0.000,0.0,0,0.0,3
197783,211923,--,0.000,0.000,0.000,0.0,0,0.0,3
197791,211918,--,0.000,0.000,0.000,0.0,0,0.0,3
197789,211923,--,0.000,0.000,0.000,0.0,0,0.0,3
197795,211929,--,0.000,0.000,0.000,0.0,0,0.0,3
197796,211933,--,0.000,0.000,0.000,0.0,0,0.0,3
197793,211927,--,0.000,0.000,0.000,0.0,0,0.0,3
197798,211928,--,0.000,0.000,0.000,0.0,0,0.0,3
197795,211926,--,0.000,0.000,0.000,0.0,0,0.0,3
197800,211930,--,0.000,0.000,0.000,0.0,0,0.0,3
197792,211924,--,0.000,0.000,0.000,0.0,0,0.0,3
197802,211927,--,0.000,0.000,0.000,0.0,0,0.0,3
197806,211925,--,0.000,0.000,0.000,0.0,0,0.0,3
197800,211922,--,0.000,0.000,0.000,0.0,0,0.0,3
197805,211922,--,0.000,0.000,0.000,0.0,0,0.0,3
197799,211927,--,0.000,0.000,0.000,0.0,0,0.0,3
197812,211929,--,0.000,0.000,0.000,0.0,0,0.0,3
197814,211933,--,0.000,0.000,0.000,0.0,0,0.0,3
197816,211935,--,0.000,0.000,0.000,0.0,0,0.0,3
197817,211934,--,0.000,0.000,0.000,0.0,0,0.0,3
197827,211928,--,0.000,0.000,0.000,0.0,0,0.0,3
197833,211936,--,0.000,0.000,0.000,0.0,0,0.0,3
197833,211936,--,0.000,0.000,0.000,0.0,0,0.0,3
197826,211939,--,0.000,0.000,0.000,0.0,0,0.0,3
197835,211939,--,0.000,0.000,0.000,0.0,0,0.0,3
197834,211940,--,0.000,0.000,0.000,0.0,0,0.0,3
197834,211936,--,0.000,0.000,0.000,0.0,0,0.0,3
197842,211942,--,0.000,0.000,0.000,0.0,0,0.0,3
197846,211939,--,0.000,0.000,0.000,0.0,0,0.0,3
197853,211946,--,0.000,0.000,0.000,0.0,0,0.0,3
197843,211945,--,0.000,0.000,0.000,0.0,0,0.0,3
197851,211949,--,0.000,0.000,0.000,0.0,0,0.0,3
197848,211945,--,0.000,0.000,0.000,0.0,0,0.0,3
197853,211944,--,0.000,0.000,0.000,0.0,0,0.0,3
197851,211937,--,0.000,0.000,0.000,0.0,0,0.0,3
197853,211945,--,0.000,0.000,0.000,0.0,0,0.0,3
197858,211941,--,0.000,0.000,0.000,0.0,0,0.0,3
197860,211944,--,0.000,0.000,0.000,0.0,0,0.0,3
197864,211952,--,0.000,0.000,0.000,0.0,0,0.0,3
197864,211942,--,0.000,0.000,0.000,0.0,0,0.0,3
197856,211945,--,0.000,0.000,0.000,0.0,0,0.0,3
197867,211948,--,0.000,0.000,0.000,0.0,0,0.0,3
197872,211952,--,0.000,0.000,0.000,0.0,0,0.0,3
197876,211952,--,0.000,0.000,0.000,0.0,0,0.0,3
197867,211955,--,0.000,0.000,0.000,0.0,0,0.0,3
197885,211952,--,0.000,0.000,0.000,0.0,0,0.0,3
197878,211948,--,0.000,0.000,0.000,0.0,0,0.0,3
197882,211954,--,0.000,0.000,0.000,0.0,0,0.0,3
197889,211948,--,0.000,0.000,0.000,0.0,0,0.0,3
197887,211951,--,0.000,0.000,0.000,0.0,0,0.0,3
197883,211950,--,0.000,0.000,0.000,0.0,0,0.0,3
197881,211944,--,0.000,0.000,0.000,0.0,0,0.0,3
197874,211948,--,0.000,0.000,0.000,0.0,0,0.0,3
197895,211956,--,0.000,0.000,0.000,0.0,0,0.0,3
197883,211953,--,0.000,0.000,0.000,0.0,0,0.0,3
197889,211947,--,0.000,0.000,0.000,0.0,0,0.0,3
197886,211945,--,0.000,0.000,0.000,0.0,0,0.0,3
197890,211952,--,0.000,0.000,0.000,0.0,0,0.0,3
197884,211944,--,0.000,0.000,0.000,0.0,0,0.0,3
197894,211947,--,0.000,0.000,0.000,0.0,0,0.0,3
197881,211940,--,0.000,0.000,0.000,0.0,0,0.0,3
197886,211945,--,0.000,0.000,0.000,0.0,0,0.0,3
197888,211947,--,0.000,0.000,0.000,0.0,0,0.0,3
197892,211949,--,0.000,0.000,0.000,0.0,0,0.0,3
197895,211949,--,0.000,0.000,0.000,0.0,0,0.0,3
197901,211949,--,0.000,0.000,0.000,0.0,0,0.0,3
197893,211942,--,0.000,0.000,0.000,0.0,0,0.0,3
197897,211948,--,0.000,0.000,0.000,0.0,0,0.0,3
197907,211945,--,0.000,0.000,0.000,0.0,0,0.0,3
197906,211955,--,0.000,0.000,0.000,0.0,0,0.0,3
197904,211942,--,0.000,0.000,0.000,0.0,0,0.0,3
197911,211954,--,0.000,0.000,0.000,0.0,0,0.0,3
197906,211955,--,0.000,0.000,0.000,0.0,0,0.0,3
197914,211958,--,0.000,0.000,0.000,0.0,0,0.0,3
197909,211955,--,0.000,0.000,0.000,0.0,0,0.0,3
197922,211956,--,0.000,0.000,0.000,0.0,0,0.0,3
197921,211949,--,0.000,0.000,0.000,0.0,0,0.0,3
197920,211959,--,0.000,0.000,0.000,0.0,0,0.0,3
197918,211954,--,0.000,0.000,0.000,0.0,0,0.0,3
197931,211960,--,0.000,0.000,0.000,0.0,0,0.0,3
197918,211952,--,0.000,0.000,0.000,0.0,0,0.0,3
197929,211955,--,0.000,0.000,0.000,0.0,0,0.0,3
197932,211947,--,0.000,0.000,0.000,0.0,0,0.0,3
197936,211962,--,0.000,0.000,0.000,0.0,0,0.0,3
197938,211961,--,0.000,0.000,0.000,0.0,0,0.0,3
197949,211966,--,0.000,0.000,0.000,0.0,0,0.0,3
197952,211963,--,0.000,0.000,0.000,0.0,0,0.0,3
197955,211968,--,0.000,0.000,0.000,0.0,0,0.0,3
197952,211961,--,0.000,0.000,0.000,0.0,0,0.0,3
197958,211972,--,0.000,0.000,0.000,0.0,0,0.0,3
197960,211963,--,0.000,0.000,0.000,0.0,0,0.0,3
197952,211964,--,0.000,0.000,0.000,0.0,0,0.0,3
197953,211959,--,0.000,0.000,0.000,0.0,0,0.0,3
197953,211963,--,0.000,0.000,0.000,0.0,0,0.0,3
197964,211958,--,0.000,0.000,0.000,0.0,0,0.0,3
197968,211971,--,0.000,0.000,0.000,0.0,0,0.0,3
197963,211966,--,0.000,0.000,0.000,0.0,0,0.0,3
197960,211965,--,0.000,0.000,0.000,0.0,0,0.0,3
197951,211962,--,0.000,0.000,0.000,0.0,0,0.0,3
197952,211954,--,0.000,0.000,0.000,0.0,0,0.0,3
197946,211955,--,0.000,0.000,0.000,0.0,0,0.0,3
197947,211954,--,0.000,0.000,0.000,0.0,0,0.0,3
197927,211949,--,0.000,0.000,0.000,0.0,0,0.0,3
197910,211940,--,0.000,0.000,0.000,0.0,0,0.0,3
197897,211944,--,0.000,0.000,0.000,0.0,0,0.0,3
197872,211928,--,0.000,0.000,0.000,0.0,0,0.0,3
197861,211910,--,0.000,0.000,0.000,0.0,0,0.0,3
197833,211903,--,0.000,0.000,0.000,0.0,0,0.0,3
197816,211895,--,0.000,0.000,0.000,0.0,0,0.0,3
197802,211902,--,0.000,0.000,0.000,0.0,0,0.0,3
197789,211888,--,0.000,0.000,0.000,0.0,0,0.0,3
197778,211889,--,0.000,0.000,0.000,0.0,0,0.0,3
197760,211878,--,0.000,0.000,0.000,0.0,0,0.0,3
197745,211871,--,0.000,0.000,0.000,0.0,0,0.0,3
197741,211867,--,0.000,0.000,0.000,0.0,0,0.0,3
197744,211870,--,0.000,0.000,0.000,0.0,0,0.0,3
197735,211863,--,0.000,0.000,0.000,0.0,0,0.0,3
197736,211875,--,0.000,0.000,0.000,0.0,0,0.0,3
197737,211871,--,0.000,0.000,0.000,0.0,0,0.0,3
197737,211874,--,0.000,0.000,0.000,0.0,0,0.0,3
197742,211872,--,0.000,0.000,0.000,0.0,0,0.0,3
197743,211879,--,0.000,0.000,0.000,0.0,0,0.0,3
197747,211875,--,0.000,0.000,0.000,0.0,0,0.0,3
197752,211877,--,0.000,0.000,0.000,0.0,0,0.0,3
197757,211878,--,0.000,0.000,0.000,0.0,0,0.0,3
197761,211884,--,0.000,0.000,0.000,0.0,0,0.0,3
197761,211884,--,0.000,0.000,0.000,0.0,0,0.0,3
197773,211886,--,0.000,0.000,0.000,0.0,0,0.0,3
197765,211882,--,0.000,0.000,0.000,0.0,0,0.0,3
197771,211884,--,0.000,0.000,0.000,0.0,0,0.0,3
197775,211886,--,0.000,0.000,0.000,0.0,0,0.0,3
197777,211893,--,0.000,0.000,0.000,0.0,0,0.0,3
197782,211892,--,0.000,0.000,0.000,0.0,0,0.0,3
197784,211891,--,0.000,0.000,0.000,0.0,0,0.0,3
197790,211898,--,0.000,0.000,0.000,0.0,0,0.0,3
197791,211889,--,0.000,0.000,0.000,0.0,0,0.0,3
197792,211900,--,0.000,0.000,0.000,0.0,0,0.0,3
197801,211898,--,0.000,0.000,0.000,0.0,0,0.0,3
197802,211898,--,0.000,0.000,0.000,0.0,0,0.0,3
197801,211907,--,0.000,0.000,0.000,0.0,0,0.0,3
197805,211900,--,0.000,0.000,0.000,0.0,0,0.0,3
197805,211905,--,0.000,0.000,0.000,0.0,0,0.0,3
197807,211911,--,0.000,0.000,0.000,0.0,0,0.0,3
197807,211910,--,0.000,0.000,0.000,0.0,0,0.0,3
197816,211894,--,0.000,0.000,0.000,0.0,0,0.0,3
197818,211910,--,0.000,0.000,0.000,0.0,0,0.0,3
197821,211908,--,0.000,0.000,0.000,0.0,0,0.0,3
197821,211918,--,0.000,0.000,0.000,0.0,0,0.0,3
197830,211910,--,0.000,0.000,0.000,0.0,0,0.0,3
197829,211913,--,0.000,0.000,0.000,0.0,0,0.0,3
197828,211914,--,0.000,0.000,0.000,0.0,0,0.0,3
197836,211910,--,0.000,0.000,0.000,0.0,0,0.0,3
197832,211911,--,0.000,0.000,0.000,0.0,0,0.0,3
197836,211911,--,0.000,0.000,0.000,0.0,0,0.0,3
197834,211906,--,0.000,0.000,0.000,0.0,0,0.0,3
197838,211913,--,0.000,0.000,0.000,0.0,0,0.0,3
197839,211907,--,0.000,0.000,0.000,0.0,0,0.0,3
197836,211911,--,0.000,0.000,0.000,0.0,0,0.0,3
197841,211911,--,0.000,0.000,0.000,0.0,0,0.0,3
197838,211909,--,0.000,0.000,0.000,0.0,0,0.0,3
197833,211899,--,0.000,0.000,0.000,0.0,0,0.0,3
197838,211903,--,0.000,0.000,0.000,0.0,0,0.0,3
197836,211900,--,0.000,0.000,0.000,0.0,0,0.0,3
197842,211904,--,0.000,0.000,0.000,0.0,0,0.0,3
197844,211900,--,0.000,0.000,0.000,0.0,0,0.0,3
197848,211907,--,0.000,0.000,0.000,0.0,0,0.0,3
197832,211910,--,0.000,0.000,0.000,0.0,0,0.0,3
197839,211914,--,0.000,0.000,0.000,0.0,0,0.0,3
197838,211904,--,0.000,0.000,0.000,0.0,0,0.0,3
197839,211913,--,0.000,0.000,0.000,0.0,0,0.0,3
197844,211905,--,0.000,0.000,0.000,0.0,0,0.0,3
197842,211904,--,0.000,0.000,0.000,0.0,0,0.0,3
197838,211906,--,0.000,0.000,0.000,0.0,0,0.0,3
197844,211904,--,0.000,0.000,0.000,0.0,0,0.0,3
197846,211906,--,0.000,0.000,0.000,0.0,0,0.0,3
197841,211903,--,0.000,0.000,0.000,0.0,0,0.0,3
197845,211904,--,0.000,0.000,0.000,0.0,0,0.0,3
197844,211904,--,0.000,0.000,0.000,0.0,0,0.0,3
197851,211903,--,0.000,0.000,0.000,0.0,0,0.0,3
197855,211916,--,0.000,0.000,0.000,0.0,0,0.0,3
197853,211906,--,0.000,0.000,0.000,0.0,0,0.0,3
197865,211908,--,0.000,0.000,0.000,0.0,0,0.0,3
197862,211915,--,0.000,0.000,0.000,0.0,0,0.0,3
197867,211923,--,0.000,0.000,0.000,0.0,0,0.0,3
197869,211919,--,0.000,0.000,0.000,0.0,0,0.0,3
197869,211913,--,0.000,0.000,0.000,0.0,0,0.0,3
197876,211920,--,0.000,0.000,0.000,0.0,0,0.0,3
197879,211925,--,0.000,0.000,0.000,0.0,0,0.0,3
197884,211925,--,0.000,0.000,0.000,0.0,0,0.0,3
197891,211920,--,0.000,0.000,0.000,0.0,0,0.0,3
197893,211925,--,0.000,0.000,0.000,0.0,0,0.0,3
197894,211921,--,0.000,0.000,0.000,0.0,0,0.0,3
197894,211920,--,0.000,0.000,0.000,0.0,0,0.0,3
197897,211919,--,0.000,0.000,0.000,0.0,0,0.0,3
197897,211923,--,0.000,0.000,0.000,0.0,0,0.0,3
197903,211924,--,0.000,0.000,0.000,0.0,0,0.0,3
197908,211929,--,0.000,0.000,0.000,0.0,0,0.0,3
197911,211926,--,0.000,0.000,0.000,0.0,0,0.0,3
197917,211937,--,0.000,0.000,0.000,0.0,0,0.0,3
197913,211929,--,0.000,0.000,0.000,0.0,0,0.0,3
197911,211921,--,0.000,0.000,0.000,0.0,0,0.0,3
197909,211920,--,0.000,0.000,0.000,0.0,0,0.0,3
197909,211919,--,0.000,0.000,0.000,0.0,0,0.0,3
197919,211930,--,0.000,0.000,0.000,0.0,0,0.0,3
197926,211932,--,0.000,0.000,0.000,0.0,0,0.0,3
197930,211938,--,0.000,0.000,0.000,0.0,0,0.0,3
197936,211938,--,0.000,0.000,0.000,0.0,0,0.0,3
197942,211935,--,0.000,0.000,0.000,0.0,0,0.0,3
197934,211938,--,0.000,0.000,0.000,0.0,0,0.0,3
197939,211942,--,0.000,0.000,0.000,0.0,0,0.0,3
197938,211941,--,0.000,0.000,0.000,0.0,0,0.0,3
197942,211937,--,0.000,0.000,0.000,0.0,0,0.0,3
197947,211942,--,0.000,0.000,0.000,0.0,0,0.0,3
197942,211941,--,0.000,0.000,0.000,0.0,0,0.0,3
197941,211944,--,0.000,0.000,0.000,0.0,0,0.0,3
197942,211940,--,0.000,0.000,0.000,0.0,0,0.0,3
197946,211942,--,0.000,0.000,0.000,0.0,0,0.0,3
197938,211929,--,0.000,0.000,0.000,0.0,0,0.0,3
197944,211942,--,0.000,0.000,0.000,0.0,0,0.0,3
197947,211940,--,0.000,0.000,0.000,0.0,0,0.0,3
197953,211938,--,0.000,0.000,0.000,0.0,0,0.0,3
197947,211942,--,0.000,0.000,0.000,0.0,0,0.0,3
197947,211935,--,0.000,0.000,0.000,0.0,0,0.0,3
197956,211937,--,0.000,0.000,0.000,0.0,0,0.0,3
197959,211943,--,0.000,0.000,0.000,0.0,0,0.0,3
197960,211937,--,0.000,0.000,0.000,0.0,0,0.0,3
197960,211939,--,0.000,0.000,0.000,0.0,0,0.0,3
197960,211941,--,0.000,0.000,0.000,0.0,0,0.0,3
197966,211945,--,0.000,0.000,0.000,0.0,0,0.0,3
197963,211946,--,0.000,0.000,0.000,0.0,0,0.0,3
197970,211945,--,0.000,0.000,0.000,0.0,0,0.0,3
197967,211944,--,0.000,0.000,0.000,0.0,0,0.0,3
197983,211946,--,0.000,0.000,0.000,0.0,0,0.0,3
197972,211941,--,0.000,0.000,0.000,0.0,0,0.0,3
197968,211944,--,0.000,0.000,0.000,0.0,0,0.0,3
197970,211941,--,0.000,0.000,0.000,0.0,0,0.0,3
197972,211949,--,0.000,0.000,0.000,0.0,0,0.0,3
197974,211937,--,0.000,0.000,0.000,0.0,0,0.0,3
197976,211947,--,0.000,0.000,0.000,0.0,0,0.0,3
197972,211948,--,0.000,0.000,0.000,0.0,0,0.0,3
197983,211951,--,0.000,0.000,0.000,0.0,0,0.0,3
197985,211949,--,0.000,0.000,0.000,0.0,0,0.0,3
197989,211937,--,0.000,0.000,0.000,0.0,0,0.0,3
197988,211943,--,0.000,0.000,0.000,0.0,0,0.0,3
197989,211953,--,0.000,0.000,0.000,0.0,0,0.0,3
197987,211946,--,0.000,0.000,0.000,0.0,0,0.0,3
197989,211947,--,0.000,0.000,0.000,0.0,0,0.0,3
198000,211950,--,0.000,0.000,0.000,0.0,0,0.0,3
198000,211949,--,0.000,0.000,0.000,0.0,0,0.0,3
197998,211950,--,0.000,0.000,0.000,0.0,0,0.0,3
198005,211958,--,0.000,0.000,0.000,0.0,0,0.0,3
198000,211952,--,0.000,0.000,0.000,0.0,0,0.0,3
198009,211954,--,0.000,0.000,0.000,0.0,0,0.0,3
198015,211951,--,0.000,0.000,0.000,0.0,0,0.0,3
198012,211957,--,0.000,0.000,0.000,0.0,0,0.0,3
198014,211953,--,0.000,0.000,0.000,0.0,0,0.0,3
198020,211958,--,0.000,0.000,0.000,0.0,0,0.0,3
198017,211953,--,0.000,0.000,0.000,0.0,0,0.0,3
198028,211962,--,0.000,0.000,0.000,0.0,0,0.0,3
198025,211958,--,0.000,0.000,0.000,0.0,0,0.0,3
198030,211956,--,0.000,0.000,0.000,0.0,0,0.0,3
198023,211957,--,0.000,0.000,0.000,0.0,0,0.0,3
198038,211955,--,0.000,0.000,0.000,0.0,0,0.0,3
198041,211961,--,0.000,0.000,0.000,0.0,0,0.0,3
198042,211961,--,0.000,0.000,0.000,0.0,0,0.0,3
198038,211958,--,0.000,0.000,0.000,0.0,0,0.0,3
198045,211959,--,0.000,0.000,0.000,0.0,0,0.0,3
198033,211964,--,0.000,0.000,0.000,0.0,0,0.0,3
198038,211962,--,0.000,0.000,0.000,0.0,0,0.0,3
198027,211962,--,0.000,0.000,0.000,0.0,0,0.0,3
198028,211953,--,0.000,0.000,0.000,0.0,0,0.0,3
198011,211954,--,0.000,0.000,0.000,0.0,0,0.0,3
198004,211952,--,0.000,0.000,0.000,0.0,0,0.0,3
197981,211940,--,0.000,0.000,0.000,0.0,0,0.0,3
197965,211938,--,0.000,0.000,0.000,0.0,0,0.0,3
197944,211920,--,0.000,0.000,0.000,0.0,0,0.0,3
197921,211916,--,0.000,0.000,0.000,0.0,0,0.0,3
197898,211903,--,0.000,0.000,0.000,0.0,0,0.0,3
197894,211896,--,0.000,0.000,0.000,0.0,0,0.0,3
197871,211883,--,0.000,0.000,0.000,0.0,0,0.0,3
197860,211889,--,0.000,0.000,0.000,0.0,0,0.0,3
197832,211874,--,0.000,0.000,0.000,0.0,0,0.0,3
197825,211867,--,0.000,0.000,0.000,0.0,0,0.0,3
197812,211855,--,0.000,0.000,0.000,0.0,0,0.0,3
197817,211859,--,0.000,0.000,0.000,0.0,0,0.0,3
197808,211854,--,0.000,0.000,0.000,0.0,0,0.0,3
197800,211851,--,0.000,0.000,0.000,0.0,0,0.0,3
197806,211856,--,0.000,0.000,0.000,0.0,0,0.0,3
197802,211857,--,0.000,0.000,0.000,0.0,0,0.0,3
197799,211855,--,0.000,0.000,0.000,0.0,0,0.0,3
197802,211866,--,0.000,0.000,0.000,0.0,0,0.0,3
197811,211853,--,0.000,0.000,0.000,0.0,0,0.0,3
197817,211862,--,0.000,0.000,0.000,0.0,0,0.0,3
197814,211858,--,0.000,0.000,0.000,0.0,0,0.0,3
197822,211866,--,0.000,0.000,0.000,0.0,0,0.0,3
197823,211861,--,0.000,0.000,0.000,0.0,0,0.0,3
197826,211865,--,0.000,0.000,0.000,0.0,0,0.0,3
197826,211865,--,0.000,0.000,0.000,0.0,0,0.0,3
197834,211870,--,0.000,0.000,0.000,0.0,0,0.0,3
197838,211865,--,0.000,0.000,0.000,0.0,0,0.0,3
197850,211868,--,0.000,0.000,0.000,0.0,0,0.0,3
197842,211868,--,0.000,0.000,0.000,0.0,0,0.0,3
197849,211873,--,0.000,0.000,0.000,0.0,0,0.0,3
197842,211869,--,0.000,0.000,0.000,0.0,0,0.0,3
197857,211881,--,0.000,0.000,0.000,0.0,0,0.0,3
197858,211876,--,0.000,0.000,0.000,0.0,0,0.0,3
197859,211879,--,0.000,0.000,0.000,0.0,0,0.0,3
197852,211878,--,0.000,0.000,0.000,0.0,0,0.0,3
197865,211878,--,0.000,0.000,0.000,0.0,0,0.0,3
197868,211879,--,0.000,0.000,0.000,0.0,0,0.0,3
197876,211890,--,0.000,0.000,0.000,0.0,0,0.0,3
197868,211880,--,0.000,0.000,0.000,0.0,0,0.0,3
197872,211881,--,0.000,0.000,0.000,0.0,0,0.0,3
197864,211882,--,0.000,0.000,0.000,0.0,0,0.0,3
197873,211888,--,0.000,0.000,0.000,0.0,0,0.0,3
197879,211883,--,0.000,0.000,0.000,0.0,0,0.0,3
197888,211889,--,0.000,0.000,0.000,0.0,0,0.0,3
197887,211887,--,0.000,0.000,0.000,0.0,0,0.0,3
197892,211891,--,0.000,0.000,0.000,0.0,0,0.0,3
197897,211901,--,0.000,0.000,0.000,0.0,0,0.0,3
197895,211891,--,0.000,0.000,0.000,0.0,0,0.0,3
197905,211891,--,0.000,0.000,0.000,0.0,0,0.0,3
197905,211895,--,0.000,0.000,0.000,0.0,0,0.0,3
197915,211902,--,0.000,0.000,0.000,0.0,0,0.0,3
197916,211897,--,0.000,0.000,0.000,0.0,0,0.0,3
197914,211898,--,0.000,0.000,0.000,0.0,0,0.0,3
197919,211906,--,0.000,0.000,0.000,0.0,0,0.0,3
197918,211901,--,0.000,0.000,0.000,0.0,0,0.0,3
197928,211903,--,0.000,0.000,0.000,0.0,0,0.0,3
197916,211904,--,0.000,0.000,0.000,0.0,0,0.0,3
197924,211905,--,0.000,0.000,0.000,0.0,0,0.0,3
197917,211906,--,0.000,0.000,0.000,0.0,0,0.0,3
197921,211911,--,0.000,0.000,0.000,0.0,0,0.0,3
197922,211898,--,0.000,0.000,0.000,0.0,0,0.0,3
197929,211909,--,0.000,0.000,0.000,0.0,0,0.0,3
197921,211904,--,0.000,0.000,0.000,0.0,0,0.0,3
197922,211910,--,0.000,0.000,0.000,0.0,0,0.0,3
197918,211903,--,0.000,0.000,0.000,0.0,0,0.0,3
197919,211904,--,0.000,0.000,0.000,0.0,0,0.0,3
197916,211897,--,0.000,0.000,0.000,0.0,0,0.0,3
197918,211904,--,0.000,0.000,0.000,0.0,0,0.0,3
197918,211899,--,0.000,0.000,0.000,0.0,0,0.0,3
197922,211901,--,0.000,0.000,0.000,0.0,0,0.0,3
197923,211900,--,0.000,0.000,0.000,0.0,0,0.0,3
197928,211904,--,0.000,0.000,0.000,0.0,0,0.0,3
197930,211905,--,0.000,0.000,0.000,0.0,0,0.0,3
197924,211905,--,0.000,0.000,0.000,0.0,0,0.0,3
197933,211904,--,0.000,0.000,0.000,0.0,0,0.0,3
197939,211906,--,0.000,0.000,0.000,0.0,0,0.0,3
197930,211901,--,0.000,0.000,0.000,0.0,0,0.0,3
197939,211908,--,0.000,0.000,0.000,0.0,0,0.0,3
197939,211907,--,0.000,0.000,0.000,0.0,0,0.0,3
197943,211909,--,0.000,0.000,0.000,0.0,0,0.0,3
197944,211905,--,0.000,0.000,0.000,0.0,0,0.0,3
197948,211910,--,0.000,0.000,0.000,0.0,0,0.0,3
197956,211916,--,0.000,0.000,0.000,0.0,0,0.0,3
197962,211910,--,0.000,0.000,0.000,0.0,0,0.0,3
197953,211905,--,0.000,0.000,0.000,0.0,0,0.0,3
197966,211910,--,0.000,0.000,0.000,0.0,0,0.0,3
197965,211911,--,0.000,0.000,0.000,0.0,0,0.0,3
197971,211915,--,0.000,0.000,0.000,0.0,0,0.0,3
197968,211914,--,0.000,0.000,0.000,0.0,0,0.0,3
197970,211910,--,0.000,0.000,0.000,0.0,0,0.0,3
197974,211919,--,0.000,0.000,0.000,0.0,0,0.0,3
197982,211915,--,0.000,0.000,0.000,0.0,0,0.0,3
197986,211918,--,0.000,0.000,0.000,0.0,0,0.0,3
197988,211925,--,0.000,0.000,0.000,0.0,0,0.0,3
197984,211920,--,0.000,0.000,0.000,0.0,0,0.0,3
197990,211928,--,0.000,0.000,0.000,0.0,0,0.0,3
197994,211924,--,0.000,0.000,0.000,0.0,0,0.0,3
197998,211921,--,0.000,0.000,0.000,0.0,0,0.0,3
197997,211921,--,0.000,0.000,0.000,0.0,0,0.0,3
197993,211918,--,0.000,0.000,0.000,0.0,0,0.0,3
197996,211921,--,0.000,0.000,0.000,0.0,0,0.0,3
198008,211918,--,0.000,0.000,0.000,0.0,0,0.0,3
198000,211928,--,0.000,0.000,0.000,0.0,0,0.0,3
198008,211928,--,0.000,0.000,0.000,0.0,0,0.0,3
198009,211925,--,0.000,0.000,0.000,0.0,0,0.0,3
198008,211926,--,0.000,0.000,0.000,0.0,0,0.0,3
198004,211919,--,0.000,0.000,0.000,0.0,0,0.0,3
198012,211925,--,0.000,0.000,0.000,0.0,0,0.0,3
198008,211923,--,0.000,0.000,0.000,0.0,0,0.0,3
198018,211928,--,0.000,0.000,0.000,0.0,0,0.0,3
198014,211932,--,0.000,0.000,0.000,0.0,0,0.0,3
198018,211930,--,0.000,0.000,0.000,0.0,0,0.0,3
198019,211925,--,0.000,0.000,0.000,0.0,0,0.0,3
198021,211926,--,0.000,0.000,0.000,0.0,0,0.0,3
198022,211930,--,0.000,0.000,0.000,0.0,0,0.0,3
198020,211924,--,0.000,0.000,0.000,0.0,0,0.0,3
198018,211924,--,0.000,0.000,0.000,0.0,0,0.0,3
198018,211924,--,0.000,0.000,0.000,0.0,0,0.0,3
198024,211926,--,0.000,0.000,0.000,0.0,0,0.0,3
198025,211929,--,0.000,0.000,0.000,0.0,0,0.0,3
198032,211924,--,0.000,0.000,0.000,0.0,0,0.0,3
198024,211923,--,0.000,0.000,0.000,0.0,0,0.0,3
198021,211918,--,0.000,0.000,0.000,0.0,0,0.0,3
198027,211921,--,0.000,0.000,0.000,0.0,0,0.0,3
198036,211924,--,0.000,0.000,0.000,0.0,0,0.0,3
198040,211927,--,0.000,0.000,0.000,0.0,0,0.0,3
198041,211923,--,0.000,0.000,0.000,0.0,0,0.0,3
198039,211926,--,0.000,0.000,0.000,0.0,0,0.0,3
198041,211925,--,0.000,0.000,0.000,0.0,0,0.0,3
198036,211924,--,0.000,0.000,0.000,0.0,0,0.0,3
198040,211927,--,0.000,0.000,0.000,0.0,0,0.0,3
198050,211928,--,0.000,0.000,0.000,0.0,0,0.0,3
198047,211928,--,0.000,0.000,0.000,0.0,0,0.0,3
198053,211925,--,0.000,0.000,0.000,0.0,0,0.0,3
198056,211927,--,0.000,0.000,0.000,0.0,0,0.0,3
198048,211930,--,0.000,0.000,0.000,0.0,0,0.0,3
198054,211927,--,0.000,0.000,0.000,0.0,0,0.0,3
198056,211929,--,0.000,0.000,0.000,0.0,0,0.0,3
198052,211926,--,0.000,0.000,0.000,0.0,0,0.0,3
198051,211926,--,0.000,0.000,0.000,0.0,0,0.0,3
198057,211925,--,0.000,0.000,0.000,0.0,0,0.0,3
198053,211928,--,0.000,0.000,0.000,0.0,0,0.0,3
198059,211926,--,0.000,0.000,0.000,0.0,0,0.0,3
198059,211926,--,0.000,0.000,0.000,0.0,0,0.0,3
198056,211923,--,0.000,0.000,0.000,0.0,0,0.0,3
198060,211939,--,0.000,0.000,0.000,0.0,0,0.0,3
198065,211927,--,0.000,0.000,0.000,0.0,0,0.0,3
198067,211929,--,0.000,0.000,0.000,0.0,0,0.0,3
198069,211928,--,0.000,0.000,0.000,0.0,0,0.0,3
198073,211935,--,0.000,0.000,0.000,0.0,0,0.0,3
198074,211929,--,0.000,0.000,0.000,0.0,0,0.0,3
198067,211934,--,0.000,0.000,0.000,0.0,0,0.0,3
198079,211936,--,0.000,0.000,0.000,0.0,0,0.0,3
198072,211931,--,0.000,0.000,0.000,0.0,0,0.0,3
198076,211925,--,0.000,0.000,0.000,0.0,0,0.0,3
198075,211936,--,0.000,0.000,0.000,0.0,0,0.0,3
198081,211935,--,0.000,0.000,0.000,0.0,0,0.0,3
198094,211937,--,0.000,0.000,0.000,0.0,0,0.0,3
198092,211936,--,0.000,0.000,0.000,0.0,0,0.0,3
198095,211937,--,0.000,0.000,0.000,0.0,0,0.0,3
198099,211945,--,0.000,0.000,0.000,0.0,0,0.0,3
198103,211940,--,0.000,0.000,0.000,0.0,0,0.0,3
198110,211946,--,0.000,0.000,0.000,0.0,0,0.0,3
198101,211944,--,0.000,0.000,0.000,0.0,0,0.0,3
198100,211946,--,0.000,0.000,0.000,0.0,0,0.0,3
198107,211947,--,0.000,0.000,0.000,0.0,0,0.0,3
198116,211945,--,0.000,0.000,0.000,0.0,0,0.0,3
198110,211943,--,0.000,0.000,0.000,0.0,0,0.0,3
198108,211947,--,0.000,0.000,0.000,0.0,0,0.0,3
198099,211940,--,0.000,0.000,0.000,0.0,0,0.0,3
198103,211936,--,0.000,0.000,0.000,0.0,0,0.0,3
198094,211933,--,0.000,0.000,0.000,0.0,0,0.0,3
198084,211935,--,0.000,0.000,0.000,0.0,0,0.0,3
198067,211923,--,0.000,0.000,0.000,0.0,0,0.0,3
198051,211914,--,0.000,0.000,0.000,0.0,0,0.0,3
198036,211911,--,0.000,0.000,0.000,0.0,0,0.0,3
198011,211901,--,0.000,0.000,0.000,0.0,0,0.0,3
197994,211891,--,0.000,0.000,0.000,0.0,0,0.0,3
197972,211878,--,0.000,0.000,0.000,0.0,0,0.0,3
197953,211871,--,0.000,0.000,0.000,0.0,0,0.0,3
197941,211870,--,0.000,0.000,0.000,0.0,0,0.0,3
197921,211868,--,0.000,0.000,0.000,0.0,0,0.0,3
197913,211861,--,0.000,0.000,0.000,0.0,0,0.0,3
197894,211851,--,0.000,0.000,0.000,0.0,0,0.0,3
197889,211843,--,0.000,0.000,0.000,0.0,0,0.0,3
197872,211837,--,0.000,0.000,0.000,0.0,0,0.0,3
197873,211836,--,0.000,0.000,0.000,0.0,0,0.0,3
197859,211826,--,0.000,0.000,0.000,0.0,0,0.0,3
197865,211826,--,0.000,0.000,0.000,0.0,0,0.0,3
197858,211823,--,0.000,0.000,0.000,0.0,0,0.0,3
197864,211821,--,0.000,0.000,0.000,0.0,0,0.0,3
197858,211826,--,0.000,0.000,0.000,0.0,0,0.0,3
197860,211827,--,0.000,0.000,0.000,0.0,0,0.0,3
197855,211820,--,0.000,0.000,0.000,0.0,0,0.0,3
197862,211823,--,0.000,0.000,0.000,0.0,0,0.0,3
197855,211814,--,0.000,0.000,0.000,0.0,0,0.0,3
197868,211817,--,0.000,0.000,0.000,0.0,0,0.0,3
197867,211818,--,0.000,0.000,0.000,0.0,0,0.0,3
197873,211821,--,0.000,0.000,0.000,0.0,0,0.0,3
197878,211820,--,0.000,0.000,0.000,0.0,0,0.0,3
197882,211815,--,0.000,0.000,0.000,0.0,0,0.0,3
197881,211819,--,0.000,0.000,0.000,0.0,0,0.0,3
197884,211823,--,0.000,0.000,0.000,0.0,0,0.0,3
197880,211815,--,0.000,0.000,0.000,0.0,0,0.0,3
197885,211823,--,0.000,0.000,0.000,0.0,0,0.0,3
197883,211814,--,0.000,0.000,0.000,0.0,0,0.0,3
197883,211814,--,0.000,0.000,0.000,0.0,0,0.0,3
197881,211809,--,0.000,0.000,0.000,0.0,0,0.0,3
197882,211815,--,0.000,0.000,0.000,0.0,0,0.0,3
197876,211813,--,0.000,0.000,0.000,0.0,0,0.0,3
197882,211815,--,0.000,0.000,0.000,0.0,0,0.0,3
197887,211807,--,0.000,0.000,0.000,0.0,0,0.0,3
197888,211812,--,0.000,0.000,0.000,0.0,0,0.0,3
197881,211802,--,0.000,0.000,0.000,0.0,0,0.0,3
197884,211807,--,0.000,0.000,0.000,0.0,0,0.0,3
197884,211803,--,0.000,0.000,0.000,0.0,0,0.0,3
197889,211801,--,0.000,0.000,0.000,0.0,0,0.0,3
197880,211803,--,0.000,0.000,0.000,0.0,0,0.0,3
197882,211801,--,0.000,0.000,0.000,0.0,0,0.0,3
197881,211799,--,0.000,0.000,0.000,0.0,0,0.0,3
197890,211796,--,0.000,0.000,0.000,0.0,0,0.0,3
197883,211795,--,0.000,0.000,0.000,0.0,0,0.0,3
197885,211788,--,0.000,0.000,0.000,0.0,0,0.0,3
197886,211790,--,0.000,0.000,0.000,0.0,0,0.0,3
197884,211791,--,0.000,0.000,0.000,0.0,0,0.0,3
197885,211788,--,0.000,0.000,0.000,0.0,0,0.0,3
197887,211786,--,0.000,0.000,0.000,0.0,0,0.0,3
197878,211790,--,0.000,0.000,0.000,0.0,0,0.0,3
197876,211778,--,0.000,0.000,0.000,0.0,0,0.0,3
197880,211772,--,0.000,0.000,0.000,0.0,0,0.0,3
197882,211778,--,0.000,0.000,0.000,0.0,0,0.0,3
197876,211773,--,0.000,0.000,0.000,0.0,0,0.0,3
197874,211772,--,0.000,0.000,0.000,0.0,0,0.0,3
197859,211765,--,0.000,0.000,0.000,0.0,0,0.0,3
197871,211772,--,0.000,0.000,0.000,0.0,0,0.0,3
197869,211768,--,0.000,0.000,0.000,0.0,0,0.0,3
197864,211764,--,0.000,0.000,0.000,0.0,0,0.0,3
197868,211757,--,0.000,0.000,0.000,0.0,0,0.0,3
197863,211760,--,0.000,0.000,0.000,0.0,0,0.0,3
197863,211755,--,0.000,0.000,0.000,0.0,0,0.0,3
197857,211754,--,0.000,0.000,0.000,0.0,0,0.0,3
197849,211746,--,0.000,0.000,0.000,0.0,0,0.0,3
197855,211754,--,0.000,0.000,0.000,0.0,0,0.0,3
197850,211743,--,0.000,0.000,0.000,0.0,0,0.0,3
197852,211749,--,0.000,0.000,0.000,0.0,0,0.0,3
197852,211738,--,0.000,0.000,0.000,0.0,0,0.0,3
197854,211745,--,0.000,0.000,0.000,0.0,0,0.0,3
197845,211741,--,0.000,0.000,0.000,0.0,0,0.0,3
197856,211740,--,0.000,0.000,0.000,0.0,0,0.0,3
197844,211736,--,0.000,0.000,0.000,0.0,0,0.0,3
197847,211733,--,0.000,0.000,0.000,0.0,0,0.0,3
197845,211725,--,0.000,0.000,0.000,0.0,0,0.0,3
197846,211723,--,0.000,0.000,0.000,0.0,0,0.0,3
197839,211718,--,0.000,0.000,0.000,0.0,0,0.0,3
197845,211717,--,0.000,0.000,0.000,0.0,0,0.0,3
197848,211712,--,0.000,0.000,0.000,0.0,0,0.0,3
197841,211710,--,0.000,0.000,0.000,0.0,0,0.0,3
197852,211711,--,0.000,0.000,0.000,0.0,0,0.0,3
197845,211715,--,0.000,0.000,0.000,0.0,0,0.0,3
197835,211708,--,0.000,0.000,0.000,0.0,0,0.0,3
197845,211708,--,0.000,0.000,0.000,0.0,0,0.0,3
197847,211712,--,0.000,0.000,0.000,0.0,0,0.0,3
197843,211699,--,0.000,0.000,0.000,0.0,0,0.0,3
197845,211699,--,0.000,0.000,0.000,0.0,0,0.0,3
197843,211701,--,0.000,0.000,0.000,0.0,0,0.0,3
197846,211703,--,0.000,0.000,0.000,0.0,0,0.0,3
197853,211704,--,0.000,0.000,0.000,0.0,0,0.0,3
197846,211699,--,0.000,0.000,0.000,0.0,0,0.0,3
197844,211693,--,0.000,0.000,0.000,0.0,0,0.0,3
197849,211688,--,0.000,0.000,0.000,0.0,0,0.0,3
197856,211697,--,0.000,0.000,0.000,0.0,0,0.0,3
197852,211697,--,0.000,0.000,0.000,0.0,0,0.0,3
197858,211697,--,0.000,0.000,0.000,0.0,0,0.0,3
197861,211696,--,0.000,0.000,0.000,0.0,0,0.0,3
197863,211700,--,0.000,0.000,0.000,0.0,0,0.0,3
197860,211700,--,0.000,0.000,0.000,0.0,0,0.0,3
197858,211700,--,0.000,0.000,0.000,0.0,0,0.0,3
197868,211698,--,0.000,0.000,0.000,0.0,0,0.0,3
197870,211707,--,0.000,0.000,0.000,0.0,0,0.0,3
197871,211700,--,0.000,0.000,0.000,0.0,0,0.0,3
197874,211702,--,0.000,0.000,0.000,0.0,0,0.0,3
197872,211704,--,0.000,0.000,0.000,0.0,0,0.0,3
197884,211702,--,0.000,0.000,0.000,0.0,0,0.0,3
197885,211699,--,0.000,0.000,0.000,0.0,0,0.0,3
197890,211707,--,0.000,0.000,0.000,0.0,0,0.0,3
197886,211704,--,0.000,0.000,0.000,0.0,0,0.0,3
197881,211706,--,0.000,0.000,0.000,0.0,0,0.0,3
197883,211702,--,0.000,0.000,0.000,0.0,0,0.0,3
197887,211706,--,0.000,0.000,0.000,0.0,0,0.0,3
197879,211697,--,0.000,0.000,0.000,0.0,0,0.0,3
197878,211692,--,0.000,0.000,0.000,0.0,0,0.0,3
197882,211694,--,0.000,0.000,0.000,0.0,0,0.0,3
197886,211699,--,0.000,0.000,0.000,0.0,0,0.0,3
197881,211691,--,0.000,0.000,0.000,0.0,0,0.0,3
197881,211687,--,0.000,0.000,0.000,0.0,0,0.0,3
197883,211682,--,0.000,0.000,0.000,0.0,0,0.0,3
197886,211694,--,0.000,0.000,0.000,0.0,0,0.0,3
197889,211686,--,0.000,0.000,0.000,0.0,0,0.0,3
197892,211687,--,0.000,0.000,0.000,0.0,0,0.0,3
197885,211687,--,0.000,0.000,0.000,0.0,0,0.0,2
197892,211689,--,0.000,0.000,0.000,0.0,0,0.0,2
197886,211683,--,0.000,0.000,0.000,0.0,0,0.0,2
197890,211680,--,0.000,0.000,0.000,0.0,0,0.0,2
197891,211689,--,0.000,0.000,0.000,0.0,0,0.0,2
197896,211691,--,0.000,0.000,0.000,0.0,0,0.0,2
197887,211678,--,0.000,0.000,0.000,0.0,0,0.0,2
197903,211689,--,0.000,0.000,0.000,0.0,0,0.0,2
197894,211678,--,0.000,0.000,0.000,0.0,0,0.0,2
197896,211687,--,0.000,0.000,0.000,0.0,0,0.0,2
197892,211679,--,0.000,0.000,0.000,0.0,0,0.0,2
197894,211684,--,0.000,0.000,0.000,0.0,0,0.0,2
197895,211681,--,0.000,0.000,0.000,0.0,0,0.0,2
197901,211681,--,0.000,0.000,0.000,0.0,0,0.0,2
197892,211674,--,0.000,0.000,0.000,0.0,0,0.0,2
197900,211686,--,0.000,0.000,0.000,0.0,0,0.0,2
197898,211679,--,0.000,0.000,0.000,0.0,0,0.0,2
197907,211683,--,0.000,0.000,0.000,0.0,0,0.0,2
197904,211680,--,0.000,0.000,0.000,0.0,0,0.0,2
197913,211685,--,0.000,0.000,0.000,0.0,0,0.0,2
197903,211676,--,0.000,0.000,0.000,0.0,0,0.0,2
197910,211688,--,0.000,0.000,0.000,0.0,0,0.0,2
197917,211681,--,0.000,0.000,0.000,0.0,0,0.0,2
197923,211686,--,0.000,0.000,0.000,0.0,0,0.0,2
197923,211682,--,0.000,0.000,0.000,0.0,0,0.0,2
197926,211688,--,0.000,0.000,0.000,0.0,0,0.0,2
197924,211686,--,0.000,0.000,0.000,0.0,0,0.0,2
197931,211684,--,0.000,0.000,0.000,0.0,0,0.0,2
197928,211695,--,0.000,0.000,0.000,0.0,0,0.0,2
197927,211700,--,0.000,0.000,0.000,0.0,0,0.0,2
197936,211696,--,0.000,0.000,0.000,0.0,0,0.0,2
197942,211697,--,0.000,0.000,0.000,0.0,0,0.0,2
197946,211695,--,0.000,0.000,0.000,0.0,0,0.0,2
197955,211701,--,0.000,0.000,0.000,0.0,0,0.0,2
197955,211696,--,0.000,0.000,0.000,0.0,0,0.0,2
197950,211700,--,0.000,0.000,0.000,0.0,0,0.0,2
197958,211693,--,0.000,0.000,0.000,0.0,0,0.0,2
197957,211697,--,0.000,0.000,0.000,0.0,0,0.0,2
197964,211704,--,0.000,0.000,0.000,0.0,0,0.0,2
197963,211704,--,0.000,0.000,0.000,0.0,0,0.0,2
197960,211695,--,0.000,0.000,0.000,0.0,0,0.0,2
197970,211693,--,0.000,0.000,0.000,0.0,0,0.0,2
197963,211701,--,0.000,0.000,0.000,0.0,0,0.0,2
197972,211696,--,0.000,0.000,0.000,0.0,0,0.0,2
197963,211695,--,0.000,0.000,0.000,0.0,0,0.0,2
197974,211702,--,0.000,0.000,0.000,0.0,0,0.0,2
197971,211691,--,0.000,0.000,0.000,0.0,0,0.0,2
197965,211696,--,0.000,0.000,0.000,0.0,0,0.0,2
197953,211693,--,0.000,0.000,0.000,0.0,0,0.0,2
197946,211683,--,0.000,0.000,0.000,0.0,0,0.0,2
197935,211674,--,0.000,0.000,0.000,0.0,0,0.0,2
197918,211673,--,0.000,0.000,0.000,0.0,0,0.0,2
197890,211665,--,0.000,0.000,0.000,0.0,0,0.0,2
197876,211650,--,0.000,0.000,0.000,0.0,0,0.0,2
197853,211644,--,0.000,0.000,0.000,0.0,0,0.0,2
197838,211644,--,0.000,0.000,0.000,0.0,0,0.0,2
197810,211623,--,0.000,0.000,0.000,0.0,0,0.0,2
197798,211619,--,0.000,0.000,0.000,0.0,0,0.0,2
197778,211609,--,0.000,0.000,0.000,0.0,0,0.0,2
197768,211595,--,0.000,0.000,0.000,0.0,0,0.0,2
197748,211602,--,0.000,0.000,0.000,0.0,0,0.0,2
197738,211599,--,0.000,0.000,0.000,0.0,0,0.0,2
197738,211596,--,0.000,0.000,0.000,0.0,0,0.0,2
197731,211588,--,0.000,0.000,0.000,0.0,0,0.0,2
197721,211590,--,0.000,0.000,0.000,0.0,0,0.0,2
197726,211585,--,0.000,0.000,0.000,0.0,0,0.0,2
197729,211589,--,0.000,0.000,0.000,0.0,0,0.0,2
197737,211590,--,0.000,0.000,0.000,0.0,0,0.0,2
197723,211591,--,0.000,0.000,0.000,0.0,0,0.0,2
197733,211591,--,0.000,0.000,0.000,0.0,0,0.0,2
197728,211593,--,0.000,0.000,0.000,0.0,0,0.0,2
197736,211592,--,0.000,0.000,0.000,0.0,0,0.0,2
197740,211600,--,0.000,0.000,0.000,0.0,0,0.0,2
197747,211601,--,0.000,0.000,0.000,0.0,0,0.0,2
197746,211599,--,0.000,0.000,0.000,0.0,0,0.0,2
197755,211610,--,0.000,0.000,0.000,0.0,0,0.0,2
197756,211608,--,0.000,0.000,0.000,0.0,0,0.0,2
197765,211610,--,0.000,0.000,0.000,0.0,0,0.0,2
197773,211611,--,0.000,0.000,0.000,0.0,0,0.0,2
197775,211606,--,0.000,0.000,0.000,0.0,0,0.0,2
197776,211603,--,0.000,0.000,0.000,0.0,0,0.0,2
197771,211610,--,0.000,0.000,0.000,0.0,0,0.0,2
197780,211607,--,0.000,0.000,0.000,0.0,0,0.0,2
197781,211609,--,0.000,0.000,0.000,0.0,0,0.0,2
197781,211607,--,0.000,0.000,0.000,0.0,0,0.0,2
197783,211615,--,0.000,0.000,0.000,0.0,0,0.0,2
197786,211611,--,0.000,0.000,0.000,0.0,0,0.0,2
197782,211608,--,0.000,0.000,0.000,0.0,0,0.0,2
197781,211599,--,0.000,0.000,0.000,0.0,0,0.0,2
197778,211609,--,0.000,0.000,0.000,0.0,0,0.0,2
197780,211594,--,0.000,0.000,0.000,0.0,0,0.0,2
197778,211605,--,0.000,0.000,0.000,0.0,0,0.0,2
197782,211597,--,0.000,0.000,0.000,0.0,0,0.0,2
197785,211600,--,0.000,0.000,0.000,0.0,0,0.0,2
197782,211600,--,0.000,0.000,0.000,0.0,0,0.0,2
197792,211604,--,0.000,0.000,0.000,0.0,0,0.0,2
197799,211606,--,0.000,0.000,0.000,0.0,0,0.0,2
197803,211615,--,0.000,0.000,0.000,0.0,0,0.0,2
197813,211616,--,0.000,0.000,0.000,0.0,0,0.0,2
197813,211618,--,0.000,0.000,0.000,0.0,0,0.0,2
197814,211617,--,0.000,0.000,0.000,0.0,0,0.0,2
197822,211617,--,0.000,0.000,0.000,0.0,0,0.0,2
197814,211618,--,0.000,0.000,0.000,0.0,0,0.0,2
197818,211617,--,0.000,0.000,0.000,0.0,0,0.0,2
197824,211623,--,0.000,0.000,0.000,0.0,0,0.0,2
197819,211623,--,0.000,0.000,0.000,0.0,0,0.0,2
197822,211615,--,0.000,0.000,0.000,0.0,0,0.0,2
197822,211620,--,0.000,0.000,0.000,0.0,0,0.0,2
197807,211623,--,0.000,0.000,0.000,0.0,0,0.0,2
197814,211615,--,0.000,0.000,0.000,0.0,0,0.0,2
197813,211611,--,0.000,0.000,0.000,0.0,0,0.0,2
197812,211611,--,0.000,0.000,0.000,0.0,0,0.0,2
197819,211613,--,0.000,0.000,0.000,0.0,0,0.0,2
197812,211608,--,0.000,0.000,0.000,0.0,0,0.0,2
197811,211603,--,0.000,0.000,0.000,0.0,0,0.0,2
197818,211613,--,0.000,0.000,0.000,0.0,0,0.0,2
197814,211608,--,0.000,0.000,0.000,0.0,0,0.0,2
197815,211613,--,0.000,0.000,0.000,0.0,0,0.0,2
197818,211618,--,0.000,0.000,0.000,0.0,0,0.0,2
197819,211612,--,0.000,0.000,0.000,0.0,0,0.0,2
197823,211614,--,0.000,0.000,0.000,0.0,0,0.0,2
197825,211610,--,0.000,0.000,0.000,0.0,0,0.0,2
197825,211612,--,0.000,0.000,0.000,0.0,0,0.0,2
197823,211619,--,0.000,0.000,0.000,0.0,0,0.0,2
197832,211620,--,0.000,0.000,0.000,0.0,0,0.0,2
197833,211616,--,0.000,0.000,0.000,0.0,0,0.0,2
197832,211618,--,0.000,0.000,0.000,0.0,0,0.0,2
197836,211624,--,0.000,0.000,0.000,0.0,0,0.0,2
197836,211621,--,0.000,0.000,0.000,0.0,0,0.0,2
197849,211627,--,0.000,0.000,0.000,0.0,0,0.0,2
197857,211626,--,0.000,0.000,0.000,0.0,0,0.0,2
197853,211627,--,0.000,0.000,0.000,0.0,0,0.0,2
197857,211631,--,0.000,0.000,0.000,0.0,0,0.0,2
197855,211640,--,0.000,0.000,0.000,0.0,0,0.0,2
197858,211626,--,0.000,0.000,0.000,0.0,0,0.0,2
197862,211642,--,0.000,0.000,0.000,0.0,0,0.0,2
197874,211639,--,0.000,0.000,0.000,0.0,0,0.0,2
197869,211640,--,0.000,0.000,0.000,0.0,0,0.0,2
197876,211645,--,0.000,0.000,0.000,0.0,0,0.0,2
197870,211642,--,0.000,0.000,0.000,0.0,0,0.0,2
197884,211642,--,0.000,0.000,0.000,0.0,0,0.0,2
197881,211634,--,0.000,0.000,0.000,0.0,0,0.0,2
197877,211637,--,0.000,0.000,0.000,0.0,0,0.0,2
197882,211638,--,0.000,0.000,0.000,0.0,0,0.0,2
197889,211633,--,0.000,0.000,0.000,0.0,0,0.0,2
197893,211638,--,0.000,0.000,0.000,0.0,0,0.0,2
197897,211633,--,0.000,0.000,0.000,0.0,0,0.0,2
197894,211644,--,0.000,0.000,0.000,0.0,0,0.0,2
197895,211632,--,0.000,0.000,0.000,0.0,0,0.0,2
197899,211641,--,0.000,0.000,0.000,0.0,0,0.0,2
197906,211646,--,0.000,0.000,0.000,0.0,0,0.0,2
197903,211643,--,0.000,0.000,0.000,0.0,0,0.0,2
197907,211646,--,0.000,0.000,0.000,0.0,0,0.0,2
197913,211647,--,0.000,0.000,0.000,0.0,0,0.0,2
197916,211650,--,0.000,0.000,0.000,0.0,0,0.0,2
197909,211644,--,0.000,0.000,0.000,0.0,0,0.0,2
197915,211640,--,0.000,0.000,0.000,0.0,0,0.0,2
197910,211636,--,0.000,0.000,0.000,0.0,0,0.0,2
197912,211645,--,0.000,0.000,0.000,0.0,0,0.0,2
197914,211641,--,0.000,0.000,0.000,0.0,0,0.0,2
197917,211639,--,0.000,0.000,0.000,0.0,0,0.0,2
197915,211641,--,0.000,0.000,0.000,0.0,0,0.0,2
197919,211636,--,0.000,0.000,0.000,0.0,0,0.0,2
197919,211643,--,0.000,0.000,0.000,0.0,0,0.0,2
197921,211640,--,0.000,0.000,0.000,0.0,0,0.0,2
197917,211642,--,0.000,0.000,0.000,0.0,0,0.0,2
197913,211636,--,0.000,0.000,0.000,0.0,0,0.0,2
197916,211632,--,0.000,0.000,0.000,0.0,0,0.0,2
197922,211637,--,0.000,0.000,0.000,0.0,0,0.0,2
197923,211639,--,0.000,0.000,0.000,0.0,0,0.0,2
197923,211639,--,0.000,0.000,0.000,0.0,0,0.0,2
197926,211635,--,0.000,0.000,0.000,0.0,0,0.0,2
197935,211637,--,0.000,0.000,0.000,0.0,0,0.0,2
197926,211627,--,0.000,0.000,0.000,0.0,0,0.0,2
197923,211641,--,0.000,0.000,0.000,0.0,0,0.0,2
197928,211632,--,0.000,0.000,0.000,0.0,0,0.0,2
197934,211638,--,0.000,0.000,0.000,0.0,0,0.0,2
197940,211640,--,0.000,0.000,0.000,0.0,0,0.0,2
197944,211644,--,0.000,0.000,0.000,0.0,0,0.0,2
197944,211645,--,0.000,0.000,0.000,0.0,0,0.0,2
197947,211646,--,0.000,0.000,0.000,0.0,0,0.0,2
197942,211640,--,0.000,0.000,0.000,0.0,0,0.0,2
197953,211647,--,0.000,0.000,0.000,0.0,0,0.0,2
197941,211642,--,0.000,0.000,0.000,0.0,0,0.0,2
197946,211647,--,0.000,0.000,0.000,0.0,0,0.0,2
197943,211638,--,0.000,0.000,0.000,0.0,0,0.0,2
197947,211635,--,0.000,0.000,0.000,0.0,0,0.0,2
197947,211638,--,0.000,0.000,0.000,0.0,0,0.0,2
197946,211630,--,0.000,0.000,0.000,0.0,0,0.0,2
197947,211635,--,0.000,0.000,0.000,0.0,0,0.0,2
197950,211643,--,0.000,0.000,0.000,0.0,0,0.0,2
197949,211643,--,0.000,0.000,0.000,0.0,0,0.0,2
197958,211646,--,0.000,0.000,0.000,0.0,0,0.0,2
197955,211642,--,0.000,0.000,0.000,0.0,0,0.0,2
197962,211642,--,0.000,0.000,0.000,0.0,0,0.0,2
197962,211650,--,0.000,0.000,0.000,0.0,0,0.0,2
197965,211653,--,0.000,0.000,0.000,0.0,0,0.0,2
197975,211644,--,0.000,0.000,0.000,0.0,0,0.0,2
197973,211652,--,0.000,0.000,0.000,0.0,0,0.0,2
197980,211654,--,0.000,0.000,0.000,0.0,0,0.0,2
197986,211664,--,0.000,0.000,0.000,0.0,0,0.0,2
197994,211665,--,0.000,0.000,0.000,0.0,0,0.0,2
198003,211671,--,0.000,0.000,0.000,0.0,0,0.0,2
198009,211682,--,0.000,0.000,0.000,0.0,0,0.0,2
198019,211686,--,0.000,0.000,0.000,0.0,0,0.0,2
198014,211688,--,0.000,0.000,0.000,0.0,0,0.0,2
198017,211691,--,0.000,0.000,0.000,0.0,0,0.0,2
198004,211692,--,0.000,0.000,0.000,0.0,0,0.0,2
198031,211694,--,0.000,0.000,0.000,0.0,0,0.0,2
198022,211691,--,0.000,0.000,0.000,0.0,0,0.0,2
198038,211701,--,0.000,0.000,0.000,0.0,0,0.0,2
198032,211699,--,0.000,0.000,0.000,0.0,0,0.0,2
198044,211699,--,0.000,0.000,0.000,0.0,0,0.0,2
198035,211699,--,0.000,0.000,0.000,0.0,0,0.0,2
198049,211706,--,0.000,0.000,0.000,0.0,0,0.0,2
198041,211705,--,0.000,0.000,0.000,0.0,0,0.0,2
198050,211702,--,0.000,0.000,0.000,0.0,0,0.0,2
198048,211703,--,0.000,0.000,0.000,0.0,0,0.0,2
198057,211702,--,0.000,0.000,0.000,0.0,0,0.0,2
198049,211697,--,0.000,0.000,0.000,0.0,0,0.0,2
198053,211703,--,0.000,0.000,0.000,0.0,0,0.0,2
198050,211700,--,0.000,0.000,0.000,0.0,0,0.0,2
198061,211705,--,0.000,0.000,0.000,0.0,0,0.0,2
198050,211696,--,0.000,0.000,0.000,0.0,0,0.0,2
198048,211690,--,0.000,0.000,0.000,0.0,0,0.0,2
198043,211692,--,0.000,0.000,0.000,0.0,0,0.0,2
198042,211696,--,0.000,0.000,0.000,0.0,0,0.0,2
198023,211686,--,0.000,0.000,0.000,0.0,0,0.0,2
198014,211679,--,0.000,0.000,0.000,0.0,0,0.0,2
197987,211676,--,0.000,0.000,0.000,0.0,0,0.0,2
197977,211657,--,0.000,0.000,0.000,0.0,0,0.0,2
197959,211651,--,0.000,0.000,0.000,0.0,0,0.0,2
197937,211649,--,0.000,0.000,0.000,0.0,0,0.0,2
197902,211636,--,0.000,0.000,0.000,0.0,0,0.0,2
197890,211624,--,0.000,0.000,0.000,0.0,0,0.0,2
197876,211616,--,0.000,0.000,0.000,0.0,0,0.0,2
197865,211622,--,0.000,0.000,0.000,0.0,0,0.0,2
197851,211611,--,0.000,0.000,0.000,0.0,0,0.0,2
197840,211607,--,0.000,0.000,0.000,0.0,0,0.0,2
197828,211604,--,0.000,0.000,0.000,0.0,0,0.0,2
197828,211602,--,0.000,0.000,0.000,0.0,0,0.0,2
197811,211597,--,0.000,0.000,0.000,0.0,0,0.0,2
197814,211596,--,0.000,0.000,0.000,0.0,0,0.0,2
197816,211598,--,0.000,0.000,0.000,0.0,0,0.0,2
197813,211597,--,0.000,0.000,0.000,0.0,0,0.0,2
197816,211594,--,0.000,0.000,0.000,0.0,0,0.0,2
197817,211599,--,0.000,0.000,0.000,0.0,0,0.0,2
197813,211595,--,0.000,0.000,0.000,0.0,0,0.0,2
197813,211602,--,0.000,0.000,0.000,0.0,0,0.0,2
197823,211589,--,0.000,0.000,0.000,0.0,0,0.0,2
197831,211599,--,0.000,0.000,0.000,0.0,0,0.0,2
197830,211599,--,0.000,0.000,0.000,0.0,0,0.0,2
197838,211605,--,0.000,0.000,0.000,0.0,0,0.0,2
197841,211609,--,0.000,0.000,0.000,0.0,0,0.0,2
197852,211605,--,0.000,0.000,0.000,0.0,0,0.0,2
197854,211610,--,0.000,0.000,0.000,0.0,0,0.0,2
197852,211607,--,0.000,0.000,0.000,0.0,0,0.0,2
197850,211605,--,0.000,0.000,0.000,0.0,0,0.0,2
197861,211611,--,0.000,0.000,0.000,0.0,0,0.0,2
197865,211615,--,0.000,0.000,0.000,0.0,0,0.0,2
197867,211618,--,0.000,0.000,0.000,0.0,0,0.0,2
197872,211615,--,0.000,0.000,0.000,0.0,0,0.0,2
197882,211621,--,0.000,0.000,0.000,0.0,0,0.0,2
197870,211616,--,0.000,0.000,0.000,0.0,0,0.0,2
197880,211620,--,0.000,0.000,0.000,0.0,0,0.0,2
197870,211615,--,0.000,0.000,0.000,0.0,0,0.0,2
197879,211624,--,0.000,0.000,0.000,0.0,0,0.0,2
197875,211615,--,0.000,0.000,0.000,0.0,0,0.0,2
197885,211616,--,0.000,0.000,0.000,0.0,0,0.0,2
197885,211616,--,0.000,0.000,0.000,0.0,0,0.0,2
197883,211618,--,0.000,0.000,0.000,0.0,0,0.0,2
197887,211620,--,0.000,0.000,0.000,0.0,0,0.0,2
197899,211626,--,0.000,0.000,0.000,0.0,0,0.0,2
197893,211615,--,0.000,0.000,0.000,0.0,0,0.0,2
197893,211627,--,0.000,0.000,0.000,0.0,0,0.0,2
197897,211617,--,0.000,0.000,0.000,0.0,0,0.0,2
197901,211630,--,0.000,0.000,0.000,0.0,0,0.0,2
197900,211621,--,0.000,0.000,0.000,0.0,0,0.0,2
197909,211622,--,0.000,0.000,0.000,0.0,0,0.0,2
197904,211621,--,0.000,0.000,0.000,0.0,0,0.0,2
197910,211624,--,0.000,0.000,0.000,0.0,0,0.0,2
197900,211622,--,0.000,0.000,0.000,0.0,0,0.0,2
197909,211622,--,0.000,0.000,0.000,0.0,0,0.0,2
197906,211621,--,0.000,0.000,0.000,0.0,0,0.0,2
197909,211631,--,0.000,0.000,0.000,0.0,0,0.0,2
197912,211631,--,0.000,0.000,0.000,0.0,0,0.0,2
197912,211624,--,0.000,0.000,0.000,0.0,0,0.0,2
197916,211625,--,0.000,0.000,0.000,0.0,0,0.0,2
197903,211623,--,0.000,0.000,0.000,0.0,0,0.0,2
197910,211628,--,0.000,0.000,0.000,0.0,0,0.0,2
197915,211625,--,0.000,0.000,0.000,0.0,0,0.0,2
197907,211619,--,0.000,0.000,0.000,0.0,0,0.0,2
197904,211616,--,0.000,0.000,0.000,0.0,0,0.0,2
197897,211616,--,0.000,0.000,0.000,0.0,0,0.0,2
197902,211630,--,0.000,0.000,0.000,0.0,0,0.0,2
197897,211616,--,0.000,0.000,0.000,0.0,0,0.0,2
197911,211619,--,0.000,0.000,0.000,0.0,0,0.0,2
197907,211620,--,0.000,0.000,0.000,0.0,0,0.0,2
197912,211624,--,0.000,0.000,0.000,0.0,0,0.0,2
197906,211618,--,0.000,0.000,0.000,0.0,0,0.0,2
197910,211619,--,0.000,0.000,0.000,0.0,0,0.0,2
197911,211615,--,0.000,0.000,0.000,0.0,0,0.0,2
197917,211619,--,0.000,0.000,0.000,0.0,0,0.0,2
197913,211612,--,0.000,0.000,0.000,0.0,0,0.0,2
197915,211616,--,0.000,0.000,0.000,0.0,0,0.0,2
197920,211618,--,0.000,0.000,0.000,0.0,0,0.0,2
197919,211620,--,0.000,0.000,0.000,0.0,0,0.0,2
197920,211619,--,0.000,0.000,0.000,0.0,0,0.0,2
197923,211622,--,0.000,0.000,0.000,0.0,0,0.0,2
197916,211614,--,0.000,0.000,0.000,0.0,0,0.0,2
197928,211625,--,0.000,0.000,0.000,0.0,0,0.0,2
197937,211618,--,0.000,0.000,0.000,0.0,0,0.0,2
197939,211624,--,0.000,0.000,0.000,0.0,0,0.0,2
197938,211621,--,0.000,0.000,0.000,0.0,0,0.0,2
197943,211627,--,0.000,0.000,0.000,0.0,0,0.0,2
197943,211624,--,0.000,0.000,0.000,0.0,0,0.0,2
197948,211626,--,0.000,0.000,0.000,0.0,0,0.0,2
197949,211619,--,0.000,0.000,0.000,0.0,0,0.0,2
197954,211627,--,0.000,0.000,0.000,0.0,0,0.0,2
197952,211630,--,0.000,0.000,0.000,0.0,0,0.0,2
197966,211633,--,0.000,0.000,0.000,0.0,0,0.0,2
197958,211626,--,0.000,0.000,0.000,0.0,0,0.0,2
197970,211635,--,0.000,0.000,0.000,0.0,0,0.0,2
197973,211638,--,0.000,0.000,0.000,0.0,0,0.0,2
197971,211640,--,0.000,0.000,0.000,0.0,0,0.0,2
197974,211645,--,0.000,0.000,0.000,0.0,0,0.0,2
197977,211645,--,0.000,0.000,0.000,0.0,0,0.0,2
197988,211643,--,0.000,0.000,0.000,0.0,0,0.0,2
197983,211639,--,0.000,0.000,0.000,0.0,0,0.0,2
197990,211643,--,0.000,0.000,0.000,0.0,0,0.0,2
197987,211642,--,0.000,0.000,0.000,0.0,0,0.0,2
197982,211639,--,0.000,0.000,0.000,0.0,0,0.0,2
197980,211641,--,0.000,0.000,0.000,0.0,0,0.0,2
197985,211637,--,0.000,0.000,0.000,0.0,0,0.0,2
197985,211640,--,0.000,0.000,0.000,0.0,0,0.0,2
197983,211635,--,0.000,0.000,0.000,0.0,0,0.0,2
197988,211640,--,0.000,0.000,0.000,0.0,0,0.0,2
197987,211638,--,0.000,0.000,0.000,0.0,0,0.0,2
198002,211634,--,0.000,0.000,0.000,0.0,0,0.0,2
197990,211631,--,0.000,0.000,0.000,0.0,0,0.0,2
197999,211636,--,0.000,0.000,0.000,0.0,0,0.0,2
197991,211643,--,0.000,0.000,0.000,0.0,0,0.0,2
197998,211641,--,0.000,0.000,0.000,0.0,0,0.0,2
198002,211640,--,0.000,0.000,0.000,0.0,0,0.0,2
